,ALCOHOL_s1[PPM],MONOXIDO DE CARBONO_S1[PPM],DIHIDROGENO_s1[PPM],ACETONA_s1[PPM],METANO_s1[PPM],ALCOHOL_s2[PPM],MONOXIDO DE CARBONO_S2[PPM],DIHIDROGENO_s2[PPM],ACETONA_s2[PPM],METANO_s2[PPM]
0,13.03,12.15,2782219.0,515.3,1540.05,13.95,18.44,1738.02,276.86,471.69
1,13.0,12.16,13365.67,507.42,1531.09,7.5,0.0,1706.98,279.56,470.21
2,13.1,12.19,12731.18,508.5,1536.54,7.39,0.0,1779.38,280.76,472.63
3,13.11,12.21,12531.33,509.29,1536.69,7.36,0.0,1774.92,282.83,475.64
4,13.17,12.18,12694.5,510.28,1534.29,7.33,0.0,1735.49,283.76,478.89
5,13.36,12.25,12922.23,517.86,1538.87,7.31,0.0,1779.29,286.92,486.1
6,13.56,12.27,13085.19,521.13,1541.38,7.34,0.0,1795.92,288.36,493.43
7,13.77,12.27,13100.7,525.78,1539.38,7.33,0.7,1803.32,289.59,500.7
8,13.91,12.32,13701.69,532.56,1541.5,7.3,0.67,1812.8,291.02,509.58
9,14.05,12.3,13673.47,535.28,1538.12,7.35,0.53,1804.8,292.71,516.25
10,14.3,12.35,13667.83,544.52,1544.22,7.34,0.74,1844.16,294.99,522.4
11,14.49,12.34,13488.14,547.93,1539.79,7.35,0.0,1846.51,295.69,531.68
12,14.73,12.37,13829.18,552.16,1540.64,7.33,0.0,1851.2,297.85,540.79
13,14.98,12.38,14079.24,559.43,1544.76,7.34,0.0,1869.15,300.35,552.15
14,15.16,12.38,14287.14,563.19,1540.98,7.42,0.83,1838.98,300.05,559.25
15,15.32,12.4,14423.28,568.52,1538.13,7.4,0.55,1847.04,302.42,566.92
16,15.55,12.43,14833.22,574.69,1544.34,7.36,0.0,1853.38,305.24,575.61
17,15.78,12.43,15051.07,577.71,1543.08,7.42,0.76,1868.57,307.0,584.12
18,16.01,12.45,15223.87,583.44,1546.7,7.41,0.0,1881.93,309.54,593.46
19,16.23,12.46,15307.77,585.94,1546.77,7.45,0.72,1863.67,312.5,600.46
20,16.42,12.49,15787.65,590.9,1548.19,7.42,0.82,1885.52,314.34,609.19
21,16.52,12.48,15503.66,592.0,1542.61,7.38,0.62,1834.72,313.69,613.79
22,16.77,12.54,15389.15,601.13,1553.25,7.43,0.0,1912.95,321.19,627.16
23,17.03,12.6,16239.74,608.11,1561.71,7.39,0.91,1938.69,322.95,634.83
24,17.3,12.69,16518.49,618.04,1571.2,7.36,0.83,2019.38,324.73,644.41
25,17.44,12.7,16849.79,620.31,1567.93,7.32,0.0,2004.81,325.16,649.35
26,17.62,12.71,16716.79,625.43,1575.96,7.38,0.0,1980.26,328.3,657.11
27,17.71,12.69,17154.42,627.87,1575.51,7.39,0.64,2006.4,330.42,663.19
28,17.8,12.69,16940.46,626.14,1567.54,7.36,1.02,1961.96,328.53,666.28
29,17.8,12.61,16317.21,614.56,1544.52,7.27,0.96,1900.17,323.03,661.93
30,17.86,12.56,15571.34,609.04,1535.33,7.38,0.0,1862.22,321.48,663.98
31,18.07,12.66,16834.32,622.32,1547.81,7.39,0.95,1907.22,326.62,674.01
32,18.29,12.7,16569.48,626.8,1551.2,7.41,0.39,1955.07,329.12,679.12
33,18.25,12.69,17047.52,626.74,1550.79,7.48,0.83,1930.47,330.0,681.43
34,18.37,12.73,16912.49,627.74,1552.15,7.46,1.02,1919.36,329.47,686.1
35,18.52,12.74,16739.89,629.94,1553.27,7.45,0.83,1956.21,331.06,691.33
36,18.57,12.75,16781.2,628.54,1550.8,7.41,1.18,1918.4,329.44,692.27
37,18.56,12.69,16828.04,627.22,1545.2,7.33,0.0,1888.67,327.7,693.31
38,18.62,12.68,17201.94,627.39,1544.18,7.42,1.7,1858.83,328.02,696.35
39,18.7,12.67,16368.17,626.9,1544.91,7.4,0.0,1891.53,329.11,700.25
40,18.82,12.72,16800.65,630.87,1549.5,7.35,0.65,1918.75,331.3,706.6
41,18.82,12.72,16950.26,631.15,1549.49,7.41,0.0,1875.52,331.51,710.39
42,18.87,12.73,15733.69,632.1,1551.47,7.37,0.0,1885.21,332.05,712.24
43,19.01,12.78,16036.66,634.13,1562.07,7.42,0.0,1899.84,333.36,714.68
44,19.01,12.76,15695.25,632.71,1557.97,7.4,0.85,1886.75,332.43,715.66
45,18.97,12.73,15533.43,630.2,1553.83,7.36,0.0,1881.77,330.85,715.18
46,19.06,12.75,16324.51,632.03,1552.79,7.36,0.61,1880.25,332.24,716.64
47,19.06,12.79,16693.46,631.46,1553.88,7.35,0.75,1895.64,331.86,718.32
48,19.13,12.77,17114.61,630.83,1552.69,7.28,0.65,1883.66,332.15,719.39
49,19.16,12.78,17146.43,630.53,1553.45,7.31,0.92,1868.64,331.7,720.43
50,19.24,12.86,17105.76,636.51,1576.41,7.38,0.0,1902.32,335.44,728.85
51,19.27,12.9,16816.63,638.92,1587.79,7.45,0.0,1925.23,338.44,734.62
52,19.28,12.91,17452.39,639.32,1589.31,7.38,0.0,1946.3,339.34,736.49
53,19.31,12.94,17370.29,639.5,1588.89,7.37,0.0,1886.97,336.43,736.25
54,19.31,12.94,17506.88,637.91,1587.36,7.35,1.13,1872.04,336.53,736.48
55,19.29,12.9,17033.27,636.67,1588.92,7.37,0.0,1898.55,336.46,737.26
56,19.32,12.94,15805.74,637.27,1587.62,7.41,0.57,1919.3,336.15,737.1
57,19.35,12.97,17207.16,637.08,1591.4,7.43,0.66,1890.03,335.82,738.17
58,19.35,12.96,16957.98,636.81,1591.93,7.51,0.72,1893.33,336.21,738.28
59,19.34,12.97,17356.83,635.85,1592.41,7.52,0.96,1870.27,335.65,739.17
60,19.37,12.98,16917.45,635.92,1591.85,7.5,1.45,1862.29,335.61,738.65
61,19.36,12.93,17244.87,635.86,1593.05,7.49,0.61,1902.6,335.65,739.38
62,19.34,12.99,17232.66,635.22,1594.07,7.51,0.75,1893.93,335.93,739.43
63,19.33,12.95,17327.62,634.48,1592.59,7.54,1.03,1884.14,335.49,739.65
64,19.33,12.96,17222.53,634.87,1593.34,7.54,0.68,1891.03,334.85,739.25
65,19.35,12.99,17035.69,633.85,1596.67,7.54,0.0,1894.55,336.09,740.29
66,19.37,12.94,17265.74,635.18,1594.14,7.56,0.0,1868.58,334.6,739.64
67,19.37,12.96,17574.14,633.88,1595.94,7.6,1.02,1874.99,334.43,740.68
68,19.36,12.95,17085.95,632.94,1594.47,7.59,0.0,1875.41,334.75,739.83
69,19.31,12.95,17329.01,632.25,1592.61,7.58,0.89,1870.0,334.02,738.81
70,19.24,12.89,17045.73,627.89,1586.89,7.55,0.68,1842.87,332.94,736.65
71,19.25,12.88,16854.02,626.57,1587.18,7.57,0.0,1848.42,331.86,736.48
72,19.24,12.89,17018.53,626.26,1587.69,7.58,0.97,1829.03,331.49,735.62
73,19.26,12.89,16958.91,626.12,1590.27,7.54,0.63,1839.36,332.82,736.8
74,19.24,12.9,17116.53,625.2,1588.58,7.59,0.77,1840.68,331.58,736.01
75,19.24,12.93,17146.02,627.67,1591.91,7.56,0.0,1847.25,332.48,736.83
76,19.23,12.92,17155.35,626.08,1591.07,7.56,0.67,1850.97,332.91,737.05
77,19.23,12.95,16909.55,626.6,1593.19,7.87,0.68,1874.4,333.04,737.43
78,19.26,12.96,16758.05,625.61,1594.24,7.18,0.86,1825.95,332.47,736.8
79,19.23,12.94,17367.75,625.89,1593.91,7.55,0.59,1883.73,332.74,737.56
80,19.24,12.99,17669.21,628.88,1602.08,7.58,1.55,1858.12,333.91,739.12
81,19.24,12.98,16600.53,627.47,1601.74,7.55,0.0,1910.8,333.61,737.66
82,19.22,12.99,17051.51,625.93,1597.13,7.53,0.95,1848.22,332.78,737.48
83,19.18,12.99,16778.38,623.71,1597.25,7.6,1.38,1843.51,332.21,735.65
84,19.21,13.0,16894.02,623.36,1598.69,7.64,0.84,1836.68,332.47,736.31
85,19.17,12.97,16879.91,623.79,1600.42,7.55,0.0,1864.96,332.59,735.27
86,19.13,12.98,17083.04,622.95,1597.57,7.59,0.82,1842.72,332.26,734.41
87,19.1,12.95,16614.82,620.96,1598.88,7.56,0.69,1853.6,331.49,732.98
88,19.09,12.97,17337.58,621.66,1600.35,7.57,0.98,1852.29,331.9,733.51
89,19.1,13.01,16969.21,620.71,1600.43,7.58,0.77,1848.47,332.4,733.03
90,19.09,13.0,17039.79,621.54,1602.14,7.58,2.14,1832.72,332.06,733.24
91,19.05,12.96,17358.23,620.49,1602.79,7.63,0.94,1865.39,331.13,731.48
92,19.01,12.99,17022.38,619.61,1602.65,7.58,0.0,1865.53,331.71,730.69
93,19.03,12.96,16941.53,619.79,1602.39,7.61,0.6,1856.76,331.35,730.48
94,18.99,12.99,17044.35,618.92,1602.62,7.59,0.85,1854.39,331.82,730.28
95,18.97,12.98,17169.23,618.7,1604.78,7.58,0.63,1867.42,331.4,729.35
96,19.01,13.0,17213.05,618.95,1604.79,7.6,1.23,1845.54,332.26,730.55
97,19.02,13.0,17324.85,619.91,1607.86,7.6,1.15,1843.94,332.8,730.7
98,18.95,12.98,16969.06,618.81,1608.14,7.63,0.55,1882.86,332.97,729.39
99,18.87,12.98,17380.73,614.61,1605.62,7.63,1.08,1854.69,330.42,727.26
100,18.81,12.98,17093.05,614.6,1606.08,7.63,0.87,1850.95,330.29,727.18
101,18.81,12.95,16991.1,611.77,1604.44,7.61,0.87,1870.2,331.33,726.94
102,18.82,12.96,17721.37,608.83,1603.53,7.58,1.17,1846.73,329.71,725.87
103,18.81,12.96,17048.56,605.65,1601.21,7.6,0.77,1843.73,328.17,724.6
104,18.82,12.94,17002.08,604.23,1599.0,7.59,0.92,1811.16,327.38,723.46
105,18.8,12.97,16932.5,605.85,1600.84,7.61,0.0,1846.05,328.54,723.27
106,18.81,12.96,17018.85,607.4,1604.48,7.62,0.83,1873.81,328.9,724.53
107,18.79,12.97,17293.77,606.81,1605.25,7.59,1.14,1859.73,329.27,723.38
108,18.79,12.98,16700.55,605.52,1603.97,7.57,0.0,1857.07,328.98,722.36
109,18.78,12.98,16554.68,604.44,1605.29,7.57,0.0,1863.37,329.47,722.47
110,18.78,12.96,16512.27,604.21,1603.39,7.55,0.71,1864.17,328.38,719.82
111,18.77,12.96,16523.21,605.24,1606.49,7.57,0.71,1871.8,329.03,720.05
112,18.63,12.95,16487.37,601.7,1601.97,7.54,0.0,1854.69,327.35,717.33
113,18.6,12.87,16616.6,600.91,1599.05,7.55,0.0,1808.34,325.03,716.31
114,18.58,12.92,16365.4,599.77,1601.71,7.56,0.73,1846.09,326.04,716.86
115,18.63,12.96,16472.07,603.43,1605.63,7.58,1.0,1850.92,328.12,717.74
116,18.57,12.92,16698.88,601.43,1602.52,7.6,0.52,1860.41,326.59,716.39
117,18.58,12.93,16843.49,599.37,1601.92,7.59,0.0,1846.41,324.8,715.79
118,18.54,12.91,16663.32,598.33,1597.54,7.57,0.88,1802.33,324.42,714.62
119,18.52,12.9,16350.86,598.73,1599.48,7.5,0.0,1836.1,324.04,714.55
120,18.55,12.95,16287.66,600.57,1603.08,7.5,0.54,1849.58,326.53,714.59
121,18.55,12.93,16064.41,600.14,1605.74,7.52,0.0,1870.14,326.77,715.09
122,18.55,12.97,15977.47,599.54,1608.09,7.53,0.0,1858.95,327.64,715.47
123,18.53,12.95,16475.47,599.34,1607.16,7.57,1.08,1841.32,325.98,714.97
124,18.51,12.96,16268.8,599.74,1605.61,7.56,0.0,1869.26,325.48,714.08
125,18.52,12.95,16586.39,600.0,1607.09,7.58,0.73,1854.36,326.59,714.02
126,18.54,12.97,16379.7,600.91,1608.62,7.5,0.0,1854.9,327.13,714.6
127,18.45,12.96,16604.32,599.86,1605.95,7.56,0.73,1841.66,325.85,713.5
128,18.43,12.92,16292.35,595.64,1602.04,7.54,0.0,1859.47,325.43,711.39
129,18.28,12.78,16266.7,585.7,1580.9,7.51,0.48,1811.24,320.76,701.33
130,18.31,12.8,16616.45,585.47,1582.14,7.54,0.55,1817.12,321.43,701.43
131,18.28,12.8,16159.34,584.2,1581.72,7.53,0.7,1795.37,320.46,699.31
132,18.27,12.8,16081.59,585.08,1581.17,7.52,0.0,1836.61,320.41,699.14
133,18.26,12.78,16415.99,584.81,1581.35,7.52,0.0,1800.78,319.79,697.19
134,18.25,12.76,16441.08,584.07,1579.95,7.53,0.59,1815.53,319.38,696.48
135,18.27,12.76,16049.53,583.98,1579.68,7.56,0.83,1806.6,319.82,696.04
136,18.29,12.95,16446.51,596.25,1607.09,7.6,0.62,1871.81,325.81,709.6
137,18.31,12.95,16262.61,597.93,1611.12,7.6,0.0,1859.63,326.86,710.64
138,18.31,12.96,16468.1,597.56,1611.02,7.57,0.0,1886.2,326.54,710.66
139,18.31,12.99,16474.67,598.65,1613.82,7.62,0.8,1896.68,327.86,710.78
140,18.31,12.99,16767.1,599.22,1614.12,7.61,0.8,1902.09,328.76,710.85
141,18.28,13.0,16551.49,598.84,1613.4,7.62,0.91,1878.76,328.34,711.11
142,18.28,12.98,16490.78,599.22,1614.39,7.57,0.42,1888.0,327.23,710.14
143,18.29,12.99,16277.74,599.1,1613.42,7.53,0.0,1885.63,328.41,710.19
144,18.28,13.0,16368.86,598.35,1617.01,7.54,0.43,1892.43,328.89,709.54
145,18.32,12.99,16443.34,598.85,1617.21,7.53,0.0,1905.5,328.79,709.33
146,18.31,13.0,16424.27,600.49,1620.0,7.59,0.0,1911.1,330.57,710.71
147,18.37,13.09,16819.47,601.97,1626.38,7.58,0.65,1968.85,332.65,711.69
148,18.41,13.13,17157.83,603.63,1628.79,7.49,0.77,1998.27,332.88,712.18
149,18.37,13.12,17276.94,603.27,1628.34,7.57,0.58,1979.91,332.28,712.11
150,18.37,13.1,16973.88,601.83,1629.03,7.59,0.54,1999.46,333.17,711.14
151,18.3,13.03,16871.99,602.1,1623.22,7.57,0.8,1950.24,331.04,709.03
152,18.27,13.02,16878.93,598.98,1619.61,7.54,0.71,1938.46,329.51,707.84
153,18.29,13.09,16923.81,602.3,1627.93,7.58,0.82,1985.83,332.1,709.98
154,18.33,13.09,17065.46,601.43,1630.4,7.63,0.89,1977.6,332.77,709.73
155,18.3,13.05,16777.8,599.78,1625.97,7.6,0.68,1922.65,331.57,708.02
156,18.3,13.03,16837.48,599.13,1623.19,7.56,0.73,1921.71,330.07,705.94
157,18.28,13.05,16026.35,599.99,1626.47,7.57,0.0,1954.44,331.85,707.41
158,18.2,13.01,16092.24,592.42,1613.1,7.55,0.66,1917.25,327.88,699.79
159,18.08,12.87,15841.67,584.13,1594.33,7.55,0.0,1885.3,321.81,690.48
160,18.07,12.9,16130.69,587.4,1597.46,7.55,0.51,1877.61,322.78,693.2
161,18.28,13.01,16073.09,596.28,1618.88,7.57,0.74,1914.45,328.51,702.95
162,18.24,13.02,16213.1,596.93,1621.46,7.6,0.0,1913.19,329.17,702.37
163,18.11,12.96,16062.48,593.13,1613.6,7.53,0.0,1887.34,325.06,698.45
164,18.09,12.97,16272.87,593.66,1613.61,7.55,0.61,1897.7,325.72,699.03
165,18.08,12.98,16588.8,592.32,1613.53,7.54,0.78,1885.58,326.73,697.68
166,18.07,12.94,16370.64,591.63,1612.02,7.57,0.83,1895.1,325.29,696.4
167,18.08,12.94,16550.45,591.87,1612.54,7.57,0.99,1884.67,325.8,697.39
168,18.19,13.03,16536.38,595.79,1621.03,7.62,0.82,1924.5,329.99,700.75
169,18.16,13.02,16565.83,598.22,1621.27,7.53,0.0,1928.27,329.48,700.95
170,18.1,12.99,16503.34,596.15,1618.16,7.54,0.87,1888.34,328.58,699.04
171,18.01,12.97,16294.51,591.74,1612.3,7.52,0.69,1891.27,325.22,695.32
172,18.03,12.95,16368.01,593.3,1614.62,7.54,0.0,1887.81,326.74,695.89
173,18.02,12.95,16246.99,592.53,1614.32,7.51,0.92,1876.39,326.17,695.25
174,17.94,12.91,15966.69,589.08,1609.67,7.55,0.62,1859.32,324.23,692.26
175,17.96,12.93,16248.96,590.38,1611.26,7.55,0.0,1894.42,323.92,693.64
176,17.97,12.94,16761.63,591.26,1612.68,7.72,1.15,1876.11,324.46,693.79
177,17.9,12.93,16295.03,589.54,1609.96,7.62,0.0,1863.94,325.09,692.1
178,17.93,12.93,16608.97,591.31,1611.63,7.59,0.97,1900.96,325.74,693.54
179,17.98,12.98,16830.29,593.09,1616.98,7.57,0.8,1912.21,327.1,694.53
180,18.01,12.99,16856.48,594.63,1618.13,7.53,0.0,1927.23,327.31,695.26
181,17.94,12.97,16907.12,591.42,1614.85,7.51,0.78,1938.7,325.57,693.04
182,17.92,12.97,16913.94,592.15,1614.89,7.54,0.86,1884.96,326.14,693.2
183,17.85,12.84,16452.77,583.83,1596.26,7.43,0.73,1892.56,322.88,683.72
184,17.83,12.8,16227.75,578.72,1589.3,7.51,0.89,1849.16,320.7,680.95
185,17.82,12.78,16521.84,581.14,1589.41,7.48,0.66,1868.93,321.38,681.07
186,17.84,12.84,16514.0,581.8,1591.33,7.46,0.74,1896.97,321.29,681.61
187,17.85,12.86,16628.3,582.85,1594.61,7.35,0.0,1922.95,322.5,681.74
188,17.83,12.85,16431.6,581.24,1591.34,7.35,0.0,1898.72,323.02,681.57
189,17.78,12.84,16261.45,581.08,1591.72,7.57,0.97,1845.38,322.34,681.09
190,17.79,12.76,16290.2,579.37,1588.91,7.58,0.85,1847.64,320.23,679.93
191,17.72,12.74,16328.3,575.51,1584.06,7.63,0.99,1814.28,317.32,678.59
192,17.73,12.75,16320.4,577.66,1586.32,7.62,0.94,1832.75,319.44,678.95
193,17.83,12.92,16804.63,583.64,1601.64,7.62,0.95,1870.73,322.54,683.0
194,17.89,12.96,16618.49,585.51,1607.28,7.63,0.91,1927.36,324.72,685.54
195,17.88,12.96,16850.18,586.45,1608.98,7.65,0.88,1966.22,326.77,686.73
196,17.94,13.03,16930.92,592.59,1618.68,7.66,0.94,1983.54,328.8,691.51
197,18.0,13.1,16940.95,597.97,1631.85,7.68,0.91,2024.46,332.71,695.88
198,18.0,13.09,17015.67,596.73,1631.83,7.7,1.01,2017.99,332.37,695.87
199,17.88,12.95,16737.69,591.45,1619.64,7.69,0.95,1892.77,325.95,690.61
200,17.95,13.0,16476.79,594.58,1627.75,7.69,0.55,1985.75,330.34,692.78
201,17.93,13.03,16841.45,595.35,1629.79,7.7,0.67,1986.0,330.47,692.8
202,17.98,13.04,16688.46,595.5,1629.26,7.72,0.72,2010.6,331.8,693.43
203,17.93,13.02,17007.05,595.65,1629.92,7.68,0.89,1990.53,331.28,692.52
204,17.91,13.03,16983.61,595.71,1628.04,7.71,1.61,1942.34,330.8,692.65
205,17.9,13.01,16950.24,595.55,1627.45,7.71,0.9,1974.14,330.37,692.63
206,17.88,13.0,16438.4,594.15,1627.39,7.67,0.41,1981.97,330.64,691.93
207,17.92,13.02,16315.04,592.15,1627.64,7.67,1.24,1937.49,330.2,691.94
208,17.89,13.02,15887.78,594.39,1627.95,7.67,1.03,1946.09,330.13,691.89
209,17.91,13.05,16427.88,595.52,1630.78,7.7,0.0,1987.58,331.49,692.42
210,17.88,12.99,16620.48,593.49,1625.22,7.68,1.21,1957.26,329.41,691.28
211,17.86,12.97,15909.93,589.01,1617.52,7.61,0.53,1921.95,326.83,689.08
212,17.86,12.96,16304.98,588.3,1614.74,7.67,0.7,1869.73,326.39,688.0
213,17.73,12.89,16468.27,586.06,1609.53,7.62,0.62,1870.55,324.36,684.67
214,17.73,12.9,16273.34,586.44,1609.91,7.65,0.68,1865.42,323.97,684.79
215,17.7,12.9,16110.52,585.11,1610.41,7.59,0.0,1865.87,323.69,684.1
216,17.72,12.91,15681.25,585.5,1607.81,7.62,0.0,1852.68,323.88,684.03
217,17.68,12.88,16346.38,585.51,1608.81,7.56,0.0,1883.16,323.46,683.2
218,17.67,12.84,15875.08,583.68,1607.08,7.57,0.91,1848.46,322.38,682.3
219,17.67,12.91,16292.0,586.2,1609.71,7.62,0.76,1876.46,324.12,684.23
220,17.79,12.99,16618.22,589.37,1614.7,7.64,0.88,1896.62,325.36,687.35
221,17.78,12.96,16392.25,588.95,1614.47,7.64,0.79,1887.16,325.4,686.29
222,17.76,12.97,16720.54,589.12,1615.63,7.64,0.87,1893.24,325.63,686.31
223,17.8,12.97,16484.03,589.94,1616.9,7.65,0.82,1884.84,327.43,686.38
224,17.64,12.82,16294.29,579.44,1590.98,7.53,0.0,1896.72,322.51,676.42
225,17.64,12.78,16275.83,577.25,1586.88,7.52,0.83,1849.77,320.88,674.31
226,17.61,12.76,16208.94,575.44,1584.64,7.55,0.91,1857.02,318.77,673.27
227,17.65,12.81,16106.81,577.95,1589.91,7.54,0.73,1884.41,320.42,675.51
228,17.64,12.83,16289.3,583.11,1599.3,7.59,1.02,1829.58,321.66,679.18
229,17.61,12.77,16207.89,579.69,1597.11,7.51,0.76,1835.08,321.15,678.26
230,17.62,12.79,16118.15,581.61,1602.32,7.57,0.77,1837.57,321.81,679.11
231,17.6,12.79,16197.25,581.83,1602.51,7.55,0.77,1802.16,321.48,678.53
232,17.71,12.9,16326.89,587.89,1614.06,7.63,1.01,1867.78,325.8,683.33
233,17.71,12.96,16465.36,588.2,1615.31,7.66,0.7,1879.1,325.6,683.78
234,17.67,12.89,15255.2,584.63,1609.43,7.62,0.0,1858.03,322.57,681.65
235,17.78,13.0,16721.17,592.27,1624.85,7.64,0.89,1938.72,330.11,687.73
236,17.81,13.03,16691.85,592.77,1627.43,7.62,0.97,1945.33,328.98,687.84
237,17.58,12.77,16290.05,578.31,1596.14,7.56,0.74,1811.63,319.1,676.88
238,17.58,12.78,16256.48,580.09,1599.39,7.54,0.0,1822.25,319.7,677.6
239,17.67,12.95,16376.01,586.53,1614.13,7.63,0.91,1903.27,326.49,682.73
240,17.71,12.97,16545.09,589.35,1619.92,7.64,0.79,1911.71,326.97,683.84
241,17.77,13.0,16942.02,591.01,1624.17,7.64,0.0,1930.95,329.47,685.68
242,17.81,13.05,17145.34,594.41,1629.42,7.67,1.59,1993.43,330.69,687.86
243,17.82,13.06,16976.64,595.4,1632.24,7.66,0.84,2031.01,332.15,689.3
244,17.87,13.08,16850.06,596.0,1631.7,7.66,0.9,2030.08,332.76,689.24
245,17.83,13.08,17064.99,594.75,1630.53,7.66,1.16,1997.87,332.3,688.32
246,17.79,13.02,16504.04,592.22,1627.64,7.65,0.96,1984.97,330.56,686.84
247,17.75,13.02,16815.37,591.97,1626.89,7.65,1.34,1939.83,329.74,685.15
248,17.76,12.99,16820.48,590.82,1623.16,7.63,1.04,1925.63,328.51,684.46
249,17.72,13.01,16788.9,589.03,1620.84,7.61,0.99,1920.46,329.23,684.45
250,17.72,12.97,16284.11,588.66,1617.06,7.62,0.0,1914.01,327.24,682.79
251,17.69,12.98,16135.07,589.28,1620.28,7.62,0.86,1912.94,327.72,683.07
252,17.65,12.96,16962.23,588.26,1617.73,7.62,1.03,1925.67,326.18,683.05
253,17.71,12.99,16532.43,588.13,1614.47,7.55,1.08,1888.73,326.6,683.19
254,17.67,12.96,16681.75,589.45,1614.89,7.53,1.08,1902.93,326.76,683.19
255,17.68,12.97,16802.66,589.86,1617.24,7.53,0.0,1897.11,327.76,684.03
256,17.69,13.0,16813.16,590.76,1616.8,7.5,0.73,1947.99,327.96,684.74
257,17.76,13.04,17053.02,593.07,1620.57,7.38,0.7,1950.97,329.65,687.01
258,17.7,13.03,16927.36,592.38,1620.39,7.35,0.0,1958.97,330.27,685.93
259,17.7,13.02,16774.84,592.36,1620.86,7.35,0.0,1951.53,330.14,685.19
260,17.63,12.95,16945.74,587.54,1615.38,7.65,1.45,1876.77,325.1,681.86
261,17.67,12.96,16434.66,587.96,1613.7,7.63,1.77,1879.15,324.91,681.63
262,17.62,12.96,16283.04,586.26,1611.53,7.59,1.98,1863.45,323.47,680.9
263,17.71,13.0,16191.8,592.74,1625.17,7.65,0.56,1965.92,330.62,685.52
264,17.77,13.05,16469.16,594.95,1628.44,7.67,0.64,1975.08,331.92,686.7
265,17.78,13.1,16655.69,596.42,1629.92,7.65,0.75,2014.36,332.59,688.05
266,17.78,13.08,16786.28,596.21,1631.32,7.66,1.05,2004.97,332.22,687.13
267,17.75,13.04,16000.06,592.77,1629.08,7.65,0.59,1989.08,331.9,685.37
268,17.74,13.08,16418.29,594.05,1627.52,7.68,1.46,1980.43,330.66,684.2
269,17.8,13.11,16490.68,595.8,1632.03,7.67,0.93,2022.6,332.09,686.55
270,17.79,13.1,16727.69,594.46,1632.43,7.68,0.85,2012.14,331.94,685.85
271,17.7,13.04,16319.03,590.14,1625.01,7.69,0.55,1995.73,330.22,682.32
272,17.81,13.15,16886.3,595.81,1635.11,7.73,0.7,2011.63,332.54,686.79
273,17.86,13.16,16130.33,597.67,1636.12,7.69,0.42,2026.61,334.02,687.87
274,17.76,13.08,16243.82,592.56,1627.77,7.6,0.0,1961.94,329.03,684.35
275,17.78,13.07,16546.36,593.05,1629.11,7.63,0.0,2012.26,331.64,683.73
276,17.74,13.06,16322.86,591.4,1627.91,7.59,0.91,1970.9,329.91,682.42
277,17.84,13.16,16322.89,596.59,1636.57,7.63,0.83,2025.99,332.71,686.95
278,17.79,13.11,16100.43,595.35,1633.47,7.59,0.34,2044.81,332.65,685.15
279,17.71,13.03,16156.2,589.08,1625.94,7.63,0.0,1983.35,329.39,681.63
280,17.68,13.0,16253.02,589.03,1626.62,7.62,0.69,1987.55,329.9,681.27
