,ALCOHOL_s1[PPM],MONOXIDO DE CARBONO_S1[PPM],DIHIDROGENO_s1[PPM],ACETONA_s1[PPM],METANO_s1[PPM],ALCOHOL_s2[PPM],MONOXIDO DE CARBONO_S2[PPM],DIHIDROGENO_s2[PPM],ACETONA_s2[PPM],METANO_s2[PPM]
0,12.28,12.31,2273371.0,441.3,1395.81,13.51,5.06,1248.03,228.29,489.88
1,12.22,12.32,11456.27,444.44,1401.16,7.19,0.0,1256.74,225.98,490.8
2,12.23,12.3,11483.84,443.53,1401.46,7.02,0.0,1286.52,226.41,490.89
3,12.37,12.33,11523.82,446.87,1402.73,7.05,0.0,1274.79,227.76,497.7
4,12.59,12.39,12349.6,453.04,1406.36,7.02,0.0,1286.77,227.82,506.84
5,12.75,12.39,12117.9,458.11,1406.19,7.07,0.0,1332.84,229.74,517.08
6,13.0,12.44,12326.78,467.49,1406.88,7.05,0.0,1340.86,233.92,529.34
7,13.32,12.48,12687.21,479.52,1409.27,7.03,0.0,1355.73,239.02,546.87
8,13.68,12.55,12994.53,491.34,1410.17,7.09,0.0,1358.7,243.36,562.73
9,14.0,12.56,13455.17,501.19,1406.84,7.02,0.0,1342.39,246.0,577.79
10,14.4,12.62,13881.33,511.87,1408.1,7.07,0.47,1353.88,249.06,596.17
11,14.88,12.7,14492.51,524.77,1411.38,7.08,0.0,1389.27,253.78,615.98
12,15.25,12.76,14693.57,536.86,1411.46,7.07,0.0,1382.68,256.07,636.12
13,15.67,12.87,15265.42,551.35,1414.17,7.1,0.52,1398.15,259.8,656.63
14,16.18,12.95,15714.8,560.13,1416.39,7.08,0.74,1401.58,262.63,676.91
15,16.6,13.07,15994.75,574.38,1420.99,7.06,0.83,1427.82,268.05,698.56
16,17.09,13.19,16121.41,585.16,1425.43,7.09,0.0,1442.6,275.41,719.42
17,17.58,13.26,16295.29,595.86,1431.2,7.08,0.0,1452.48,277.96,739.97
18,17.99,13.29,17047.32,606.21,1432.53,7.13,0.71,1461.56,281.9,760.64
19,18.37,13.31,17074.96,619.9,1432.97,7.16,0.71,1466.57,284.98,778.29
20,18.81,13.39,17475.28,630.05,1434.74,7.14,0.0,1463.3,287.16,795.26
21,19.24,13.5,17568.79,634.94,1436.1,7.11,0.0,1481.08,289.14,816.0
22,19.59,13.54,18143.52,642.17,1439.17,7.16,0.67,1478.14,292.24,834.83
23,20.07,13.58,18087.96,647.46,1441.71,7.19,0.67,1479.43,293.38,854.38
24,20.4,13.63,18761.7,653.51,1442.04,7.17,0.76,1488.82,295.81,869.14
25,20.65,13.66,18566.16,662.16,1444.57,7.17,0.0,1486.25,296.49,885.18
26,21.06,13.73,19212.04,667.44,1446.5,7.17,0.0,1483.3,298.8,902.77
27,21.4,13.79,19373.6,670.72,1448.91,7.16,0.0,1504.17,300.3,917.55
28,21.73,13.85,20105.86,678.39,1454.94,7.19,0.0,1508.26,301.63,933.82
29,22.09,13.95,20041.77,685.08,1458.95,7.24,0.52,1493.24,303.38,948.59
30,22.3,14.0,20026.0,689.95,1459.73,7.29,0.88,1491.45,304.67,962.24
31,22.48,14.01,20224.7,694.01,1460.66,7.29,0.59,1491.04,306.26,973.49
32,22.71,14.03,21624.91,697.9,1462.11,7.3,1.27,1470.73,308.05,987.37
33,22.86,14.06,20883.48,699.39,1461.97,7.31,0.98,1453.15,307.81,996.31
34,23.12,14.11,20801.03,701.43,1461.58,7.31,1.15,1456.1,309.32,1007.68
35,23.4,14.19,21143.19,703.59,1464.27,7.32,0.91,1475.74,310.88,1016.75
36,23.58,14.26,21278.04,706.63,1471.71,7.31,1.02,1483.72,313.84,1028.89
37,23.77,14.32,21493.8,709.0,1475.63,7.32,0.97,1494.47,315.6,1039.9
38,23.91,14.38,21774.99,711.32,1482.24,7.35,1.05,1482.41,317.37,1050.72
39,24.1,14.38,21666.97,711.9,1482.9,7.34,0.98,1487.45,318.4,1058.13
40,24.37,14.47,21894.53,713.4,1488.33,7.35,1.0,1492.17,320.25,1068.8
41,24.5,14.5,21908.7,713.46,1489.3,7.36,0.87,1496.11,319.81,1075.79
42,24.64,14.51,21936.15,714.31,1492.46,7.35,0.87,1503.42,320.12,1082.7
43,24.74,14.52,21898.26,713.25,1494.77,7.35,0.85,1500.61,319.87,1087.29
44,24.77,14.51,22041.81,712.48,1492.73,7.37,0.92,1501.66,319.69,1090.37
45,24.83,14.52,21989.92,711.6,1496.14,7.36,0.93,1499.92,319.58,1094.46
46,24.84,14.52,22001.63,710.42,1494.39,7.36,0.0,1503.07,319.17,1097.02
47,24.87,14.51,21994.98,708.08,1493.61,7.38,0.0,1485.99,318.37,1099.95
48,24.9,14.54,21986.51,709.27,1499.42,7.38,0.91,1485.83,319.33,1103.99
49,24.92,14.52,22037.06,708.05,1502.26,7.39,0.89,1499.75,318.76,1106.92
50,24.92,14.54,21461.5,706.18,1502.94,7.38,0.75,1494.42,318.35,1106.91
51,24.95,14.55,21959.58,707.73,1509.65,7.42,0.91,1503.89,319.78,1111.25
52,24.97,14.56,21995.81,706.7,1511.29,7.39,0.92,1504.1,320.14,1113.59
53,24.97,14.53,21895.09,705.2,1511.41,7.43,0.86,1515.13,319.64,1114.07
54,24.96,14.55,22035.42,703.79,1512.08,7.4,0.88,1494.15,318.9,1113.82
55,24.95,14.55,22008.33,702.52,1514.22,7.43,0.94,1498.76,318.83,1115.3
56,24.87,14.53,21485.72,693.16,1506.29,7.4,0.86,1493.56,312.8,1109.05
57,24.89,14.55,21360.96,694.42,1512.56,7.43,0.73,1503.58,315.91,1110.92
58,24.87,14.55,21300.95,692.96,1513.76,7.42,0.0,1499.31,314.32,1110.93
59,24.86,14.55,21238.77,688.94,1513.93,7.39,0.6,1508.9,314.53,1110.19
60,24.82,14.56,21257.66,684.04,1514.43,7.41,0.77,1504.39,313.81,1108.29
61,24.81,14.56,21073.94,682.35,1515.79,7.41,0.7,1495.05,313.5,1107.95
62,24.74,14.56,21273.29,680.28,1515.34,7.4,0.7,1493.86,312.51,1106.17
63,24.67,14.53,21042.4,675.79,1515.09,7.43,0.88,1489.12,312.13,1104.55
64,24.57,14.53,21283.65,671.26,1514.24,7.41,0.92,1494.95,309.12,1100.09
65,24.52,14.54,21170.98,671.05,1513.55,7.44,0.94,1494.33,310.65,1099.7
66,24.4,14.52,21011.83,667.31,1514.43,7.43,0.85,1494.31,307.59,1095.26
67,24.24,14.51,21058.42,664.5,1511.52,7.41,0.65,1473.9,306.01,1090.87
68,24.13,14.49,20951.65,660.55,1511.1,7.38,0.87,1463.09,303.92,1088.43
69,24.01,14.46,20777.52,655.66,1511.55,7.39,0.88,1446.56,302.07,1085.16
70,23.97,14.49,20765.0,656.51,1514.11,7.38,0.66,1480.38,302.6,1083.97
71,23.91,14.51,20877.56,656.03,1516.03,7.42,0.97,1481.04,304.29,1082.34
72,23.84,14.5,20944.18,652.19,1515.88,7.42,0.79,1476.18,302.64,1078.53
73,23.82,14.5,20566.42,648.19,1516.4,7.4,0.87,1478.81,301.93,1076.16
74,23.73,14.45,20504.07,645.3,1512.4,7.4,0.83,1479.36,300.84,1070.81
75,23.68,14.46,20553.39,644.66,1514.59,7.42,0.96,1483.36,301.04,1070.2
76,23.63,14.47,20487.22,644.17,1518.56,7.42,0.95,1487.5,301.01,1066.74
77,23.56,14.44,20478.31,642.62,1515.26,7.4,0.76,1497.17,300.66,1062.25
78,23.52,14.45,20669.46,641.39,1519.23,7.44,0.8,1491.28,300.62,1062.41
79,23.54,14.49,20705.28,643.39,1522.42,7.49,0.99,1503.14,301.65,1064.24
80,23.45,14.48,20555.98,642.27,1521.64,7.46,0.97,1489.88,300.82,1059.65
81,23.18,14.35,20033.35,634.99,1512.81,7.39,0.88,1436.12,297.09,1047.74
82,23.03,14.31,19704.73,632.68,1512.89,7.39,0.8,1432.03,295.77,1043.76
83,22.92,14.29,19891.7,630.56,1511.91,7.41,0.0,1426.24,294.9,1040.79
84,22.87,14.26,19832.38,628.37,1511.51,7.39,0.86,1406.71,294.2,1036.6
85,22.82,14.25,19506.95,625.93,1510.29,7.36,0.86,1405.11,293.55,1033.57
86,22.76,14.24,19311.65,624.61,1510.54,7.39,0.0,1416.34,293.52,1030.98
87,22.68,14.23,19372.18,621.85,1509.58,7.42,0.67,1402.57,292.88,1027.78
88,22.59,14.23,19382.06,620.5,1510.09,7.39,0.77,1414.41,292.29,1025.55
89,22.55,14.22,19406.14,619.85,1510.24,7.41,0.89,1417.57,292.57,1024.02
90,22.52,14.23,19452.67,619.27,1512.59,7.4,0.85,1424.0,293.1,1023.14
91,22.46,14.22,19226.38,617.79,1513.71,7.4,0.87,1425.38,293.51,1019.17
92,22.43,14.2,19157.75,615.57,1513.66,7.36,0.86,1412.16,293.29,1015.31
93,22.4,14.24,19274.33,614.33,1513.78,7.42,0.0,1433.53,293.54,1014.47
94,22.31,14.2,18819.8,607.27,1512.39,7.41,0.86,1404.94,291.59,1009.94
95,22.3,14.21,18327.75,608.37,1513.26,7.35,0.56,1437.7,292.94,1009.5
96,22.28,14.22,18638.9,607.91,1514.52,7.29,0.0,1459.97,293.5,1007.49
97,22.3,14.26,18800.26,613.43,1519.26,7.38,0.0,1494.04,294.54,1009.23
98,22.31,14.32,18093.59,617.23,1522.57,7.37,0.0,1512.49,297.14,1009.43
99,22.29,14.33,18839.0,617.59,1523.56,7.36,0.0,1521.33,295.32,1008.22
100,22.24,14.27,18881.28,610.12,1521.26,7.43,0.73,1506.12,294.76,1003.03
101,22.19,14.26,18411.1,607.82,1518.65,7.36,0.0,1497.36,294.36,1000.32
102,22.12,14.27,17938.06,605.2,1520.33,7.41,0.56,1503.17,294.35,997.3
103,22.11,14.27,19057.02,605.68,1522.76,7.43,0.9,1508.11,293.91,996.81
104,22.04,14.26,19183.35,603.51,1520.79,7.42,0.93,1505.09,292.57,995.36
105,21.96,14.24,19137.16,601.51,1519.23,7.48,0.97,1488.26,292.77,992.38
106,21.92,14.23,18946.47,601.25,1520.36,7.47,0.0,1496.83,292.74,989.62
107,21.82,14.2,19232.6,598.34,1520.98,7.48,0.85,1490.11,291.67,985.82
108,21.71,14.13,18385.93,596.68,1520.55,7.45,0.0,1478.39,291.79,983.21
109,21.61,14.08,17615.06,594.65,1516.39,7.38,0.6,1472.75,289.84,979.24
110,21.58,14.06,17252.38,592.57,1516.48,7.36,0.0,1469.31,290.01,976.75
111,21.47,14.04,16936.08,589.35,1514.06,7.33,0.0,1455.03,289.31,972.16
112,21.53,14.1,16901.18,593.8,1518.46,7.32,0.0,1500.39,290.91,974.89
113,21.61,14.21,16697.19,598.17,1522.04,7.33,0.0,1510.0,291.72,978.14
114,21.56,14.19,16783.2,596.97,1520.26,7.36,0.0,1503.81,292.39,974.07
115,21.52,14.17,17010.91,596.06,1520.82,7.37,0.0,1496.79,291.39,973.12
116,21.46,14.19,17348.95,595.28,1522.43,7.38,0.28,1505.68,291.77,970.4
117,21.37,14.16,17592.24,595.23,1523.07,7.42,0.57,1514.53,292.06,968.85
118,21.33,14.15,16885.33,593.55,1523.38,7.35,0.0,1519.37,291.99,967.75
119,21.31,14.12,17051.68,591.71,1522.02,7.38,0.0,1506.23,291.14,964.81
120,21.33,14.12,16692.72,592.47,1523.68,7.4,0.58,1509.79,291.42,965.36
121,21.31,14.16,17118.59,592.74,1525.3,7.37,0.0,1520.2,291.18,965.36
122,21.24,14.08,16989.61,589.42,1521.09,7.35,0.0,1517.15,291.62,960.85
123,21.19,14.05,17109.01,588.36,1521.08,7.36,0.0,1494.04,290.52,958.68
124,21.17,14.06,16605.89,588.44,1523.26,7.39,0.0,1517.95,290.19,956.72
125,21.18,14.12,17205.24,589.79,1525.81,7.36,0.0,1527.75,292.43,957.68
126,21.14,14.1,17195.39,590.15,1526.99,7.33,0.37,1526.39,292.91,956.26
127,21.13,14.1,17091.91,588.42,1525.98,7.31,0.0,1522.36,292.21,953.97
128,21.04,14.08,17085.05,587.92,1523.86,7.31,0.0,1530.72,291.59,952.28
129,21.01,14.04,16900.48,585.97,1522.61,7.27,0.0,1524.2,290.49,950.49
130,20.83,13.99,16787.92,582.37,1518.48,7.39,0.0,1493.97,288.98,944.53
131,20.7,13.93,17318.86,579.34,1515.99,7.34,0.0,1478.39,287.02,938.65
132,20.95,14.09,17150.44,587.91,1528.81,7.4,0.0,1511.69,293.68,949.35
133,20.97,14.16,17592.12,589.2,1535.22,7.39,0.63,1558.41,294.47,950.15
134,20.86,14.08,17492.3,586.04,1528.37,7.43,0.0,1521.46,292.41,945.75
135,20.74,14.05,17308.25,583.77,1523.63,7.43,0.0,1523.34,289.79,941.99
136,20.71,14.05,17602.09,585.16,1528.73,7.43,0.0,1508.2,291.19,941.4
137,20.76,14.12,17232.58,586.58,1532.55,7.42,0.0,1548.32,293.59,943.1
138,20.75,14.09,17414.72,585.75,1534.81,7.42,0.0,1542.42,292.84,940.23
139,20.84,14.2,18010.69,591.19,1541.97,7.46,0.6,1575.56,295.68,947.6
140,20.74,14.15,18174.41,588.89,1537.34,7.43,0.54,1553.42,294.48,944.79
141,20.66,14.08,17850.98,586.33,1528.82,7.41,0.0,1520.78,291.78,940.42
142,20.66,14.08,17313.27,587.2,1528.8,7.4,0.59,1513.89,292.75,940.6
143,20.64,14.07,16768.4,585.79,1527.88,7.36,0.0,1531.26,291.58,938.57
144,20.62,14.05,17773.97,585.87,1530.83,7.44,0.0,1521.45,293.0,938.39
145,20.57,14.02,18018.33,584.06,1526.03,7.46,0.0,1495.28,291.6,936.07
146,20.59,14.05,17981.27,585.42,1530.06,7.43,0.77,1526.73,292.79,936.86
147,20.53,14.04,17693.04,585.04,1529.77,7.42,0.0,1524.07,291.85,935.14
148,20.43,13.98,16982.65,580.34,1524.34,7.39,0.5,1497.99,289.51,928.94
149,20.46,14.0,17097.73,584.25,1525.8,7.41,0.0,1512.53,290.78,930.24
150,20.49,14.02,17304.89,584.43,1528.34,7.41,0.59,1525.07,291.45,931.01
151,20.43,14.01,17847.46,584.09,1530.27,7.43,0.37,1523.66,291.0,930.44
152,20.39,13.96,17290.55,579.93,1523.35,7.41,0.72,1502.81,289.78,924.48
153,20.35,13.96,17139.92,578.66,1522.06,7.35,0.0,1523.79,289.71,922.24
154,20.32,13.92,16883.08,576.64,1520.49,7.36,0.0,1508.65,289.09,920.44
155,20.29,13.88,16515.58,574.93,1519.89,7.39,0.0,1511.38,288.36,916.01
156,20.26,13.84,16794.95,574.0,1520.37,7.36,0.64,1515.62,287.18,913.29
157,20.25,13.91,16712.29,573.82,1519.19,7.38,0.0,1509.12,287.91,911.96
158,20.24,13.88,16274.02,572.68,1520.55,7.43,0.0,1512.66,287.95,910.46
159,20.25,13.88,16538.73,573.03,1522.39,7.45,0.0,1500.53,287.77,909.25
160,20.24,13.92,16049.36,573.55,1522.93,7.46,0.0,1509.05,288.33,909.45
161,20.19,13.87,16491.41,573.3,1522.55,7.42,0.0,1509.48,287.76,907.84
162,20.17,13.84,16881.89,570.87,1520.57,7.36,0.0,1508.15,286.81,905.47
163,20.19,13.91,17016.64,573.36,1521.25,7.36,0.0,1518.44,287.74,907.76
164,20.07,13.79,16830.19,569.75,1519.51,7.3,0.0,1523.49,286.22,901.71
165,19.97,13.74,16362.23,563.77,1513.33,7.36,0.0,1469.26,283.75,896.85
166,20.16,13.89,17060.32,572.06,1523.99,7.33,0.0,1520.72,288.79,905.63
167,20.21,13.96,17075.92,574.35,1526.17,7.34,0.0,1544.86,290.39,907.14
168,20.11,13.91,16994.95,572.71,1523.37,7.33,0.0,1538.16,288.06,903.45
169,20.11,13.92,17058.49,573.07,1521.91,7.33,0.39,1541.66,289.24,902.8
170,20.16,13.98,16882.08,573.83,1525.94,7.36,0.0,1564.92,290.45,904.27
171,20.18,13.97,16995.72,573.99,1530.38,7.35,0.0,1561.49,292.19,904.86
172,20.18,14.0,16463.68,575.42,1532.91,7.33,0.0,1570.77,291.41,904.6
173,20.13,13.98,16220.03,573.63,1530.55,7.33,0.0,1553.47,291.37,902.51
174,20.09,13.96,16989.8,573.44,1530.49,7.41,0.0,1562.08,291.19,902.18
175,20.09,13.96,17724.58,574.34,1531.61,7.45,0.78,1563.87,290.67,900.99
176,20.01,13.89,17546.27,571.39,1526.42,7.43,0.86,1526.37,289.74,897.68
177,19.97,13.84,17359.05,568.71,1521.28,7.46,0.75,1521.86,287.01,894.15
178,19.9,13.78,17378.69,565.84,1519.85,7.42,0.74,1496.5,286.26,890.73
179,19.64,13.68,17000.43,560.94,1514.16,7.4,0.0,1468.88,282.74,883.29
180,19.72,13.71,17328.37,562.06,1516.87,7.42,0.42,1482.24,284.3,886.5
181,19.82,13.78,17243.81,562.89,1521.6,7.43,0.74,1496.76,286.62,889.2
182,19.71,13.75,17303.15,562.81,1516.56,7.43,0.0,1486.35,284.87,886.08
183,19.62,13.7,17357.9,561.39,1516.2,7.4,0.9,1494.34,284.48,883.02
184,19.62,13.72,17307.56,562.81,1516.89,7.43,0.9,1493.93,284.93,884.27
185,19.72,13.79,17329.0,565.06,1517.43,7.43,0.67,1503.42,285.95,887.05
186,19.75,13.81,17655.41,565.9,1519.05,7.43,0.66,1509.74,286.98,887.58
187,19.77,13.84,17347.55,569.21,1521.34,7.44,0.89,1518.92,287.25,887.97
188,19.67,13.81,17479.53,565.13,1519.8,7.43,0.89,1508.91,286.83,884.92
189,19.67,13.79,17482.33,566.36,1521.3,7.43,0.74,1512.64,287.55,884.52
190,19.67,13.8,17516.39,566.59,1520.4,7.48,0.0,1509.95,287.43,884.83
191,19.56,13.75,17349.16,562.13,1519.48,7.43,0.91,1507.46,285.98,881.21
192,19.52,13.73,17344.53,561.49,1520.95,7.44,0.69,1506.96,286.12,880.9
193,19.54,13.75,17283.56,562.46,1522.51,7.45,0.94,1488.56,286.54,881.69
194,19.51,13.73,17155.53,561.86,1518.72,7.42,0.63,1498.51,286.73,880.07
195,19.53,13.75,17320.96,564.42,1521.2,7.43,0.72,1524.08,286.83,881.76
196,19.54,13.8,16947.6,564.48,1521.06,7.41,0.92,1517.47,287.04,880.06
197,19.59,13.83,17432.86,567.41,1525.18,7.43,0.92,1521.7,289.06,882.42
198,19.59,13.82,17510.96,567.58,1521.98,7.47,0.81,1524.77,288.7,881.13
199,19.41,13.71,17105.51,559.8,1517.64,7.41,0.81,1503.19,284.2,875.18
200,19.26,13.6,16791.65,552.72,1510.6,7.36,0.75,1441.01,278.23,867.91
201,19.25,13.59,17017.2,550.78,1506.08,7.34,0.82,1409.25,278.09,865.58
202,19.23,13.56,16836.98,551.3,1505.17,7.35,0.76,1406.21,277.64,865.54
203,19.23,13.59,16897.37,549.94,1501.08,7.38,0.67,1398.58,277.23,864.5
204,19.19,13.55,17165.47,549.99,1495.61,7.37,0.86,1395.61,276.83,863.29
205,19.2,13.57,16562.19,548.66,1493.91,7.34,0.63,1385.94,276.4,861.69
206,19.17,13.56,16409.22,549.03,1496.48,7.35,0.74,1386.43,275.96,862.31
207,19.19,13.57,16668.05,549.7,1495.93,7.34,0.69,1384.88,276.41,862.16
208,19.18,13.56,16210.82,549.39,1498.74,7.32,0.0,1394.49,276.78,861.59
209,19.18,13.58,16445.32,548.45,1497.96,7.33,0.68,1390.31,276.73,861.26
210,19.16,13.58,16457.13,549.06,1496.23,7.35,0.76,1393.16,276.65,860.59
211,19.17,13.62,16486.03,550.12,1499.58,7.36,0.58,1413.53,277.38,862.2
212,19.18,13.59,16721.73,548.45,1496.72,7.34,0.45,1400.09,276.67,860.03
213,19.13,13.58,16764.57,549.76,1496.9,7.34,0.77,1408.31,276.73,860.85
214,19.14,13.57,16527.33,548.13,1497.74,7.33,0.44,1382.97,276.33,859.22
215,19.1,13.55,16633.98,547.73,1496.13,7.3,0.75,1381.53,275.93,858.17
216,19.05,13.54,16551.46,548.85,1494.83,7.34,0.0,1378.82,275.72,858.11
217,19.05,13.56,16532.97,547.02,1496.43,7.33,0.66,1389.24,275.88,857.15
218,19.05,13.56,16492.85,547.7,1496.19,7.34,0.44,1385.86,276.29,857.37
219,19.12,13.59,16755.38,548.78,1503.71,7.35,0.0,1416.42,277.69,857.95
220,19.2,13.63,16855.07,553.98,1513.84,7.39,0.0,1482.9,280.92,860.68
221,19.21,13.67,16720.09,555.71,1516.67,7.41,0.41,1498.92,282.29,862.54
222,19.25,13.71,17148.62,558.06,1517.97,7.41,0.0,1514.47,284.35,861.89
223,19.29,13.76,16765.14,561.35,1522.21,7.39,0.71,1509.81,286.97,865.46
224,19.24,13.71,16809.19,557.81,1518.55,7.4,0.69,1506.55,284.97,861.33
225,19.2,13.7,16932.41,556.38,1518.25,7.4,0.66,1494.15,284.48,860.26
226,19.22,13.71,17116.69,556.8,1518.73,7.44,0.62,1515.47,284.96,859.86
227,19.23,13.67,16706.14,556.32,1517.36,7.36,0.0,1497.46,283.22,858.73
228,19.21,13.66,16759.46,553.39,1515.28,7.36,0.69,1496.99,282.03,858.04
229,19.2,13.66,16635.63,552.35,1514.1,7.38,0.0,1501.65,281.1,857.22
230,19.2,13.65,16795.37,553.56,1517.57,7.4,0.6,1498.32,282.28,858.17
231,19.23,13.69,16939.97,554.26,1517.85,7.44,0.82,1498.51,283.6,857.54
232,19.21,13.7,16691.1,554.65,1518.71,7.4,0.6,1498.03,284.48,857.96
233,19.2,13.69,16724.29,554.55,1521.15,7.42,0.73,1506.59,284.19,857.23
234,19.21,13.66,16767.43,553.36,1517.66,7.37,0.62,1496.87,282.42,855.81
235,19.17,13.68,16792.34,552.47,1516.55,7.4,0.53,1492.39,282.13,855.07
236,19.12,13.64,16452.31,550.93,1513.56,7.41,0.63,1481.48,281.02,852.1
237,19.14,13.65,16494.75,551.11,1515.58,7.39,0.78,1492.27,280.98,853.45
238,19.15,13.65,16647.88,551.89,1514.99,7.34,0.63,1512.6,281.67,854.2
239,19.14,13.66,16761.79,551.24,1516.37,7.39,0.73,1498.62,281.23,852.64
240,19.03,13.61,16612.75,547.8,1511.62,7.36,0.36,1467.18,278.9,846.14
241,19.0,13.6,16837.47,548.68,1512.06,7.36,0.83,1481.65,278.63,846.38
242,19.03,13.62,16697.62,548.72,1512.33,7.39,0.69,1473.06,278.5,846.8
243,19.0,13.61,16799.7,548.43,1511.84,7.38,0.78,1467.09,278.8,844.92
244,18.95,13.6,16546.11,547.55,1511.69,7.37,0.95,1467.73,278.2,843.14
245,18.95,13.6,16476.31,547.54,1510.14,7.37,0.66,1481.83,278.14,842.58
246,18.98,13.6,16714.92,548.17,1512.32,7.37,0.62,1480.4,278.62,843.52
247,18.96,13.61,16485.91,547.43,1512.39,7.38,0.0,1485.46,278.88,843.87
248,18.93,13.6,16487.94,547.74,1512.42,7.4,0.81,1464.06,278.04,843.12
249,18.89,13.6,16234.29,547.45,1512.52,7.39,0.0,1470.69,278.52,842.41
250,18.91,13.58,15962.78,547.37,1510.31,7.39,0.51,1467.53,278.65,841.65
251,18.79,13.56,15976.89,545.43,1506.24,7.35,0.0,1454.01,277.33,838.99
252,18.83,13.56,15931.94,544.96,1506.01,7.37,0.46,1447.22,277.43,838.44
253,18.88,13.6,16519.45,547.86,1511.75,7.38,0.56,1488.24,278.41,840.13
254,18.93,13.62,16256.72,549.25,1513.3,7.38,0.85,1498.75,280.14,840.74
255,18.88,13.58,16328.84,547.44,1512.19,7.36,0.0,1485.44,278.63,839.58
256,18.8,13.55,16030.18,538.72,1496.09,7.32,0.7,1411.16,275.11,831.09
257,18.81,13.52,16460.25,537.8,1493.36,7.32,0.0,1419.61,274.42,830.77
258,18.79,13.56,16139.97,537.78,1497.23,7.33,0.68,1413.92,275.44,831.11
259,18.76,13.54,16293.98,536.77,1494.78,7.35,0.72,1398.42,273.95,830.17
260,18.73,13.52,16258.36,534.42,1491.1,7.3,0.59,1388.92,272.62,827.97
261,18.75,13.51,16065.2,534.14,1491.78,7.34,0.45,1393.42,273.51,828.64
262,18.71,13.51,16307.62,534.36,1493.24,7.34,0.6,1387.81,271.93,828.33
263,18.57,13.44,15970.97,532.1,1485.36,7.28,0.73,1363.82,267.36,825.03
264,18.53,13.35,15671.98,528.61,1475.45,7.3,0.57,1335.73,263.54,821.14
265,18.54,13.39,15947.19,530.1,1479.71,7.3,0.67,1360.49,264.55,822.75
266,18.57,13.41,15944.59,531.38,1483.51,7.3,0.84,1347.0,266.43,823.64
267,18.55,13.45,16041.75,531.92,1485.69,7.3,0.78,1362.3,267.47,823.95
268,18.52,13.42,16146.45,532.02,1484.72,7.28,0.0,1377.31,266.65,822.81
269,18.55,13.43,16153.58,531.51,1485.3,7.29,0.68,1353.37,266.6,823.03
270,18.53,13.42,15924.32,531.25,1484.85,7.3,0.72,1368.09,266.31,821.81
271,18.53,13.42,16107.48,531.28,1486.7,7.3,0.0,1374.56,267.54,822.39
272,18.54,13.43,16007.5,531.51,1486.77,7.3,0.73,1361.13,266.94,821.39
273,18.53,13.43,15937.11,530.85,1485.25,7.31,0.74,1373.18,267.28,820.34
274,18.53,13.43,15958.55,531.26,1485.54,7.3,0.0,1358.87,266.35,820.31
275,18.54,13.47,16077.23,531.8,1488.02,7.29,0.64,1372.63,267.71,820.64
276,18.53,13.46,16008.97,532.1,1490.23,7.3,0.67,1382.94,268.24,820.86
277,18.53,13.47,15912.36,531.76,1489.78,7.28,0.69,1377.56,268.52,820.46
278,18.54,13.46,16036.99,531.78,1491.53,7.31,0.89,1370.25,268.2,820.08
279,18.56,13.48,16294.01,531.34,1491.8,7.28,1.14,1376.85,268.85,819.76
