,ALCOHOL_s1[PPM],MONOXIDO DE CARBONO_S1[PPM],DIHIDROGENO_s1[PPM],ACETONA_s1[PPM],METANO_s1[PPM],ALCOHOL_s2[PPM],MONOXIDO DE CARBONO_S2[PPM],DIHIDROGENO_s2[PPM],ACETONA_s2[PPM],METANO_s2[PPM]
0,18.71,18.29,2566.2,532.99,1705.69,13.98,22.04,2232.76,333.86,857.15
1,18.82,18.3,2484.17,533.44,1698.07,7.95,0.87,2174.71,333.17,848.66
2,18.94,18.26,2435.52,535.27,1691.01,7.9,0.62,2170.07,331.03,851.79
3,19.22,18.33,2366.78,551.29,1675.15,7.87,0.91,2188.85,338.25,882.12
4,20.13,18.72,2436.14,595.27,1680.58,7.89,0.76,2350.95,358.0,953.66
5,21.48,19.16,2557.57,675.06,1706.9,7.91,0.74,2622.42,387.74,1058.71
6,22.97,19.63,2658.27,751.05,1722.86,7.97,0.88,2722.45,421.37,1180.14
7,24.44,19.92,2559.87,822.04,1709.96,7.92,0.0,2740.41,446.63,1305.3
8,26.33,20.29,2654.49,907.42,1711.3,7.9,0.0,2867.82,479.44,1446.66
9,28.12,20.75,2636.71,994.54,1712.78,7.97,1.03,2907.25,513.19,1603.34
10,30.13,21.13,2603.49,1079.22,1718.51,7.99,0.87,2986.64,545.43,1769.7
11,32.22,21.68,2656.35,1170.8,1733.74,8.03,0.99,3091.16,584.68,1951.53
12,34.49,22.23,2769.52,1277.22,1761.17,8.07,0.8,3290.75,627.14,2150.6
13,36.58,22.76,2811.87,1371.07,1775.15,8.1,0.8,3384.69,662.89,2341.47
14,38.71,23.34,2791.44,1481.07,1806.01,8.15,0.0,3445.85,712.01,2569.83
15,40.68,23.82,2787.87,1566.48,1821.17,8.18,0.77,3501.59,743.8,2766.75
16,42.58,24.25,2824.01,1647.63,1840.53,8.21,0.71,3563.0,777.9,2965.1
17,44.39,24.65,2844.62,1729.16,1864.18,8.29,0.93,3567.84,805.14,3145.39
18,45.83,24.99,2824.03,1793.25,1872.26,8.29,1.06,3615.62,826.82,3322.52
19,46.84,24.94,2615.82,1816.82,1846.26,8.26,1.06,3382.2,826.98,3460.15
20,48.78,25.65,2821.62,1919.48,1898.93,8.39,1.05,3667.26,880.01,3669.81
21,50.01,25.85,2813.62,1968.93,1911.41,8.42,1.04,3669.32,896.08,3827.12
22,51.36,26.18,2850.97,2030.95,1934.98,8.5,1.06,3731.47,917.72,3995.36
23,52.33,26.37,2840.06,2070.99,1947.01,8.5,1.11,3696.29,928.54,4138.2
24,52.87,26.34,2654.14,2075.76,1927.44,8.48,0.0,3471.13,923.32,4235.7
25,53.11,26.14,2423.37,2059.49,1895.32,8.39,0.99,3199.19,904.19,4313.54
26,54.08,26.37,2456.08,2099.84,1919.96,8.49,1.03,3236.29,923.06,4447.33
27,55.49,27.05,2746.02,2185.0,1981.63,8.61,0.96,3573.64,972.3,4627.49
28,56.49,27.4,2851.3,2235.89,2017.82,8.61,1.05,3734.18,1001.77,4764.93
29,56.98,27.5,2850.92,2250.1,2027.37,8.67,0.94,3663.49,1004.46,4859.68
30,57.61,27.67,2853.21,2277.24,2045.6,8.7,0.98,3726.56,1013.09,4961.06
31,58.4,28.0,2971.65,2318.48,2076.0,8.81,1.12,3877.28,1034.92,5075.77
32,58.6,28.02,2907.77,2312.18,2075.12,8.84,1.31,3762.78,1031.46,5137.96
33,58.95,28.06,2914.9,2318.4,2084.3,8.81,1.03,3761.17,1031.87,5203.94
34,59.63,28.38,3044.3,2356.64,2120.22,8.95,1.27,3942.62,1056.75,5308.82
35,59.83,28.42,3042.98,2365.32,2133.94,8.93,1.08,3903.17,1059.93,5370.92
36,60.14,28.56,3120.91,2376.35,2149.11,9.0,1.07,3994.97,1065.8,5437.37
37,60.37,28.62,3161.31,2384.15,2163.59,8.97,1.12,3951.24,1073.47,5495.94
38,61.1,28.94,3461.21,2432.93,2204.89,9.09,0.0,4249.61,1108.71,5595.49
39,61.6,29.17,3593.97,2462.81,2246.71,9.21,1.18,4440.25,1125.95,5675.71
40,61.32,28.97,3469.3,2431.0,2220.92,9.17,0.98,4229.27,1107.65,5669.73
41,60.76,28.79,3396.68,2372.47,2195.2,9.1,1.1,4124.54,1084.85,5590.5
42,60.67,28.7,3413.01,2359.02,2196.31,9.07,1.19,4121.6,1078.61,5611.16
43,60.71,28.73,3416.78,2355.62,2204.73,9.15,1.42,4084.57,1078.48,5639.61
44,60.61,28.66,3276.15,2350.47,2204.09,9.15,1.43,3968.04,1070.99,5676.3
45,60.13,28.39,2946.41,2314.16,2181.69,9.16,1.38,3659.65,1043.6,5684.82
46,60.47,28.57,3081.89,2336.23,2205.89,9.15,1.3,3813.34,1061.54,5748.5
47,60.91,28.86,3347.49,2372.46,2253.44,9.18,1.39,4015.75,1086.16,5812.35
48,61.18,29.11,3584.22,2396.05,2287.58,9.36,1.01,4220.01,1103.63,5860.48
49,60.36,28.66,3252.26,2333.18,2244.61,9.28,1.19,3836.33,1067.31,5791.55
50,60.39,28.75,3338.67,2337.82,2261.11,9.28,1.02,3939.49,1074.89,5816.06
51,60.42,28.81,3414.84,2338.49,2275.51,9.27,1.08,4051.14,1075.9,5824.84
52,58.49,27.64,2680.89,2175.18,2148.81,8.92,0.0,3221.68,984.59,5636.37
53,58.49,27.72,2735.56,2179.25,2165.55,8.99,0.7,3250.74,992.39,5660.38
54,59.35,28.43,3192.85,2263.88,2248.7,9.11,1.32,3764.68,1044.52,5773.42
55,60.01,28.86,3625.76,2318.47,2314.75,9.28,1.4,4180.16,1082.26,5844.71
56,60.08,29.01,3757.37,2331.59,2336.42,9.31,1.16,4278.96,1095.92,5855.95
57,59.2,28.56,3417.52,2254.36,2287.26,9.19,0.9,3950.74,1052.49,5761.31
58,60.16,29.22,4004.69,2339.93,2369.93,9.42,1.2,4549.88,1110.55,5865.73
59,60.09,29.26,4158.2,2341.53,2388.88,9.45,1.36,4630.3,1112.06,5860.83
60,58.04,28.01,3172.46,2163.79,2243.81,9.15,1.1,3618.42,1006.91,5651.3
61,57.16,27.51,2873.78,2104.73,2199.07,9.0,1.25,3376.76,972.14,5571.3
62,57.61,27.93,3176.14,2146.69,2248.69,9.14,1.03,3586.75,999.12,5622.24
63,57.19,27.8,3086.52,2122.74,2236.1,9.09,0.0,3533.42,993.95,5587.37
64,57.18,27.88,3228.31,2129.49,2256.13,9.12,0.99,3632.83,1001.63,5590.45
65,56.81,27.71,3081.7,2103.26,2250.2,9.26,1.12,3544.75,993.33,5561.11
66,56.25,27.55,3159.46,2063.53,2228.06,9.23,1.41,3566.42,975.35,5440.62
67,56.4,27.7,3384.62,2079.93,2255.33,9.28,1.27,3743.63,984.86,5443.26
68,56.0,27.51,3268.15,2043.76,2236.25,9.22,1.27,3579.64,969.62,5401.21
69,55.02,27.1,2941.21,1975.5,2181.25,9.11,1.21,3299.25,927.89,5300.57
70,54.97,27.14,3058.28,1979.78,2198.73,9.12,1.23,3390.58,933.68,5297.46
71,55.53,27.59,3448.85,2033.84,2257.47,9.24,1.27,3765.2,972.18,5355.96
72,54.93,27.23,3240.41,1990.49,2229.12,9.21,1.33,3564.87,946.66,5286.08
73,53.81,26.61,2849.31,1910.52,2162.35,9.07,1.28,3151.05,900.65,5176.18
74,53.57,26.57,2808.47,1901.31,2161.7,9.06,1.24,3138.3,898.81,5152.36
75,53.6,26.69,2912.88,1906.25,2179.09,9.07,1.1,3259.99,907.2,5157.44
76,52.9,26.28,2737.19,1862.07,2141.77,8.96,0.83,3036.23,879.18,5084.45
77,52.99,26.41,2860.9,1879.5,2167.14,9.03,0.0,3186.8,894.35,5098.48
78,52.92,26.48,2932.28,1880.05,2178.86,9.07,0.0,3266.67,898.76,5086.26
79,52.98,26.67,3036.09,1887.85,2195.35,9.04,1.15,3378.57,907.79,5086.47
80,52.8,26.64,3077.56,1880.99,2195.66,9.03,0.0,3362.45,905.5,5055.63
81,52.99,26.89,3372.16,1904.24,2234.19,9.17,0.0,3578.99,920.13,5072.24
82,52.72,26.82,3347.33,1886.03,2226.81,9.16,1.1,3539.07,911.44,5040.07
83,52.62,26.77,3350.79,1882.39,2230.75,9.13,0.71,3578.27,913.71,5015.52
84,52.41,26.73,3387.37,1873.08,2230.47,9.17,1.02,3580.53,908.75,4991.18
85,52.24,26.69,3360.26,1865.29,2228.1,9.17,0.0,3585.66,907.44,4970.3
86,51.8,26.4,3207.24,1834.72,2205.81,9.09,0.0,3442.6,892.18,4921.04
87,52.03,26.67,3425.17,1860.08,2232.12,9.15,0.68,3666.18,909.43,4944.79
88,51.15,26.13,3091.22,1798.99,2179.82,9.07,0.82,3294.16,873.64,4846.85
89,50.68,25.85,2924.22,1768.89,2152.56,9.01,0.87,3156.26,857.26,4802.88
90,50.64,25.92,3012.08,1773.6,2163.11,9.05,0.0,3221.78,862.02,4800.02
91,49.48,25.31,2626.82,1694.0,2083.41,8.85,0.92,2780.45,813.39,4682.96
92,50.26,25.86,2993.58,1760.09,2156.57,9.0,0.0,3200.46,856.91,4763.49
93,51.24,26.61,3528.99,1842.89,2251.55,9.22,1.12,3735.72,910.25,4867.51
94,50.88,26.37,3329.31,1822.14,2226.13,9.19,1.05,3509.65,890.15,4844.26
95,49.93,25.8,2921.05,1753.48,2166.1,9.0,0.91,3114.38,851.92,4755.42
96,49.21,25.41,2730.96,1708.47,2123.49,8.86,0.69,2828.88,821.2,4683.21
97,49.15,25.45,2819.24,1715.04,2133.37,8.98,0.0,2873.78,823.19,4682.78
98,49.39,25.71,2911.52,1733.34,2156.14,9.02,1.05,3087.96,840.46,4696.13
99,50.36,26.39,3468.78,1813.54,2246.98,9.26,1.38,3617.03,896.05,4788.06
100,48.92,25.55,2888.85,1710.1,2147.87,9.0,1.07,3044.36,832.23,4633.24
101,47.98,25.0,2546.61,1644.08,2081.24,8.83,1.15,2701.34,792.57,4544.86
102,47.66,24.82,2460.67,1627.74,2070.68,8.79,0.79,2653.27,787.24,4518.21
103,47.61,24.86,2527.87,1631.44,2074.92,8.79,0.0,2678.41,787.13,4502.75
104,47.59,24.92,2555.15,1634.68,2084.41,8.85,0.0,2684.53,790.67,4500.53
105,47.58,25.01,2650.81,1639.61,2099.11,8.85,1.18,2758.81,796.06,4494.86
106,47.65,25.14,2726.89,1649.45,2113.49,8.88,1.04,2815.08,802.5,4495.9
107,48.82,25.92,3310.2,1742.17,2220.35,9.11,0.0,3486.21,866.84,4606.87
108,48.32,25.68,3174.24,1710.38,2186.79,9.03,1.21,3374.67,848.19,4539.1
109,48.09,25.55,3113.06,1691.45,2173.68,8.92,1.03,3300.62,836.93,4509.93
110,47.48,25.17,2841.84,1644.17,2128.36,8.88,0.97,2933.81,807.59,4436.06
111,47.01,24.92,2749.27,1618.22,2104.13,8.89,0.74,2784.91,791.83,4388.33
112,45.87,24.25,2317.23,1549.88,2031.63,8.68,0.92,2495.36,752.95,4293.45
113,46.66,24.79,2740.49,1606.53,2098.22,8.87,0.91,2768.71,786.11,4355.47
114,46.65,24.9,2794.86,1611.35,2107.26,8.83,0.95,2832.68,791.54,4344.75
115,46.31,24.72,2706.85,1591.26,2088.16,8.8,1.18,2786.93,782.01,4310.63
116,45.87,24.44,2538.25,1565.62,2065.32,8.76,0.0,2660.06,765.32,4265.73
117,46.24,24.73,2751.0,1591.21,2095.57,8.89,1.08,2814.13,785.85,4290.9
118,45.72,24.46,2593.23,1561.72,2067.22,8.78,0.92,2701.8,769.42,4243.75
119,46.04,24.75,2763.32,1587.17,2102.38,8.86,0.84,2877.09,790.12,4268.29
120,46.65,25.2,3030.85,1632.42,2155.88,9.01,0.0,3235.26,813.86,4312.54
121,46.82,25.34,3211.02,1645.28,2172.47,9.04,1.03,3357.1,825.54,4319.11
122,46.72,25.33,3236.57,1638.52,2175.01,9.02,0.97,3342.32,820.57,4304.37
123,46.69,25.35,3297.81,1641.14,2179.19,9.06,0.62,3395.6,826.93,4291.67
124,46.89,25.48,3492.27,1657.29,2195.64,9.08,0.86,3505.91,839.78,4314.4
125,46.4,25.22,3264.44,1627.95,2169.95,9.04,1.2,3377.82,821.8,4263.14
126,45.62,24.7,2876.81,1573.47,2110.02,8.86,1.05,3018.98,787.5,4184.78
127,44.9,24.24,2603.79,1527.91,2059.01,8.76,1.11,2711.51,759.37,4122.88
128,43.99,23.62,2228.76,1465.9,1988.7,8.63,1.23,2335.41,720.03,4033.11
129,43.48,23.32,2057.89,1441.2,1959.39,8.59,1.25,2140.48,704.17,3991.98
130,43.53,23.44,2104.62,1448.93,1969.14,8.61,1.07,2189.33,710.2,3999.51
131,43.89,23.72,2259.86,1475.02,2000.29,8.71,1.11,2376.4,727.42,4028.19
132,44.4,24.09,2497.45,1512.02,2043.33,8.78,1.24,2618.78,750.59,4067.28
133,45.13,24.72,2905.88,1570.58,2112.39,8.93,1.13,3027.56,791.61,4137.45
134,44.75,24.46,2782.97,1545.41,2089.49,8.85,0.89,2888.94,777.72,4092.73
135,45.08,24.76,2997.0,1570.51,2123.31,8.98,1.25,3118.82,795.03,4115.55
136,44.05,24.04,2582.81,1495.58,2043.46,8.78,1.01,2658.34,749.02,4006.22
137,43.6,23.86,2520.56,1464.17,2012.84,8.71,1.03,2631.5,735.65,3925.64
138,43.99,24.13,2748.37,1492.39,2049.31,8.77,1.07,2836.03,754.31,3955.59
139,43.91,24.1,2732.25,1491.13,2045.39,8.76,1.1,2803.54,752.85,3947.47
140,44.8,24.74,3194.86,1553.81,2120.42,8.94,0.0,3283.21,797.93,4019.89
141,45.21,25.14,3517.63,1588.59,2164.32,9.06,1.0,3560.41,821.1,4054.37
142,45.33,25.14,3480.95,1597.89,2178.22,9.08,0.0,3550.55,821.29,4079.65
143,45.73,25.45,3767.72,1627.46,2216.75,9.15,1.08,3762.14,847.66,4119.58
144,45.46,25.31,3635.51,1611.3,2193.71,9.13,1.21,3660.19,835.63,4093.16
145,45.13,25.01,3403.2,1586.06,2166.24,9.04,1.08,3492.02,817.49,4051.73
146,44.5,24.55,3035.14,1539.1,2113.69,8.92,0.86,3132.47,788.83,3989.6
147,44.93,24.96,3407.09,1578.95,2157.87,9.02,1.07,3474.93,816.17,4036.12
148,45.25,25.19,3587.77,1604.76,2190.48,9.08,1.11,3684.79,840.56,4068.76
149,45.0,25.03,3475.53,1588.78,2171.2,9.05,1.16,3553.8,825.58,4039.08
150,44.47,24.6,3130.42,1545.87,2122.24,8.93,1.09,3258.07,796.08,3977.65
151,44.31,24.54,3055.77,1535.94,2109.12,8.91,1.14,3203.47,793.06,3962.96
152,44.35,24.63,3158.9,1546.61,2124.45,8.98,0.85,3274.45,799.19,3972.2
153,44.89,25.08,3565.08,1590.46,2175.08,9.04,1.15,3633.4,828.65,4021.15
154,45.16,25.32,3765.76,1614.88,2202.67,9.12,1.08,3760.92,844.6,4051.14
155,44.15,24.56,3130.25,1540.13,2115.33,8.88,0.93,3242.08,797.44,3950.97
156,44.74,25.04,3544.89,1582.87,2170.37,9.04,1.08,3579.39,826.77,4006.26
157,45.42,25.53,3986.11,1638.27,2232.44,9.19,1.04,4046.06,868.26,4069.97
158,44.86,25.25,3700.96,1600.35,2190.06,9.07,1.19,3728.84,839.19,4012.79
159,44.33,24.82,3369.43,1560.61,2142.05,8.97,1.05,3475.93,814.32,3957.66
160,43.67,24.41,2989.46,1519.19,2094.57,8.88,1.04,3167.07,790.02,3903.03
161,43.59,24.4,2982.82,1518.01,2091.49,8.89,1.05,3126.59,786.98,3900.1
162,43.44,24.28,2946.62,1510.2,2080.62,8.87,1.09,3104.74,784.34,3889.7
163,43.35,24.24,2914.11,1506.31,2074.18,8.87,1.08,3035.81,781.1,3879.06
164,43.42,24.31,2963.14,1512.42,2081.68,8.87,1.15,3068.55,786.27,3887.18
165,43.27,24.24,2928.9,1501.61,2074.44,8.87,1.04,3048.57,782.88,3867.0
166,43.34,24.33,2974.04,1511.44,2085.84,8.86,1.15,3111.33,789.77,3879.8
167,43.71,24.64,3253.62,1539.43,2120.08,8.95,1.11,3347.09,806.07,3905.18
168,44.21,24.98,3550.23,1572.78,2162.45,9.07,1.52,3568.06,830.95,3945.86
169,44.15,24.99,3568.15,1573.5,2165.55,9.06,1.05,3594.86,831.24,3942.82
170,44.31,25.07,3642.87,1576.03,2174.92,9.1,1.22,3665.92,833.19,3941.61
171,44.34,25.15,3746.31,1588.27,2182.29,9.11,1.3,3753.97,841.86,3944.22
172,44.24,25.08,3691.85,1574.84,2173.87,9.09,1.35,3675.64,834.64,3929.89
173,43.91,24.87,3564.52,1558.33,2156.2,9.05,1.33,3588.76,822.89,3904.59
174,43.37,24.51,3202.25,1519.13,2108.85,8.96,0.95,3288.12,800.57,3851.21
175,43.59,24.68,3369.36,1538.48,2132.24,8.97,1.0,3449.86,815.56,3873.13
176,43.62,24.72,3409.9,1544.1,2136.66,9.02,1.41,3450.81,815.23,3877.22
177,43.58,24.71,3408.42,1540.86,2135.33,8.99,1.28,3451.92,819.47,3868.41
178,43.77,24.87,3563.32,1557.97,2153.92,9.09,1.31,3580.62,826.57,3889.15
179,43.83,24.95,3599.03,1561.4,2161.96,9.11,1.32,3654.92,833.68,3894.15
180,43.91,25.05,3703.08,1570.02,2168.37,9.1,1.45,3675.55,836.72,3893.48
181,43.58,24.82,3494.66,1549.39,2149.38,9.07,1.24,3549.29,821.87,3861.33
182,42.57,24.13,2933.96,1473.29,2063.99,8.83,1.28,3013.61,775.29,3770.16
183,42.35,23.98,2855.88,1459.71,2048.62,8.81,1.32,2879.85,765.45,3752.2
184,42.49,24.12,2927.83,1474.53,2064.28,8.85,2.09,2971.72,775.85,3770.11
185,42.98,24.42,3135.82,1503.78,2098.41,8.95,1.9,3240.22,802.94,3804.48
186,42.31,24.03,2860.24,1462.85,2054.12,8.83,2.0,2929.66,772.0,3749.54
187,42.29,24.03,2862.26,1463.26,2053.32,8.86,1.73,2927.06,773.26,3749.08
188,42.27,24.05,2860.92,1463.53,2057.24,8.82,1.55,2972.4,776.3,3745.84
189,42.42,24.13,2951.44,1473.35,2066.29,8.88,1.51,3039.93,781.11,3753.71
190,42.58,24.28,3048.11,1488.79,2082.72,8.94,1.48,3154.32,790.87,3768.18
191,43.11,24.67,3424.56,1526.52,2128.49,9.0,1.76,3450.12,815.33,3805.72
192,43.82,25.23,3861.47,1577.38,2192.74,9.18,1.5,3878.45,854.17,3873.31
193,43.98,25.34,3957.77,1588.78,2208.73,9.23,1.63,3999.45,866.45,3885.87
194,43.61,25.08,3776.15,1560.38,2180.67,9.13,1.7,3787.52,843.58,3836.15
195,43.18,24.74,3512.82,1526.42,2141.92,9.07,1.52,3544.39,822.04,3787.66
196,43.16,24.75,3542.58,1529.22,2145.08,9.07,1.38,3563.75,823.52,3792.97
197,43.13,24.73,3514.24,1523.62,2139.19,9.01,1.24,3571.65,821.3,3783.07
198,43.68,25.18,3869.67,1568.28,2189.75,9.24,1.33,3907.5,854.99,3839.71
199,43.76,25.2,3962.13,1571.59,2195.32,9.23,1.54,3935.49,859.05,3843.71
200,44.46,25.67,4471.89,1623.86,2264.84,9.39,1.44,4439.67,897.48,3902.82
201,43.8,25.27,4004.02,1575.77,2208.55,9.28,1.54,3991.76,862.15,3838.8
202,44.31,25.62,4334.53,1613.42,2247.57,9.32,1.38,4285.57,889.04,3886.43
203,43.16,24.82,3627.54,1526.12,2154.06,9.11,1.36,3685.07,832.82,3771.24
204,41.84,23.97,2935.07,1442.16,2051.93,8.88,1.29,3023.98,775.8,3665.92
205,41.69,23.85,2857.37,1431.81,2040.48,8.82,1.11,2905.84,763.91,3653.14
206,41.39,23.68,2781.54,1414.59,2017.88,8.81,1.39,2784.89,750.64,3635.82
207,41.23,23.61,2731.03,1406.66,2010.27,8.8,1.25,2737.63,748.87,3630.41
208,40.98,23.39,2553.82,1390.48,1990.57,8.72,1.19,2654.03,736.94,3606.25
209,41.12,23.53,2636.85,1401.54,2002.07,8.77,1.37,2698.68,747.01,3622.17
210,41.56,23.91,2871.31,1436.22,2039.77,8.82,0.0,2897.29,769.83,3659.12
211,41.69,24.0,2929.38,1441.87,2050.4,8.75,1.0,3033.28,775.95,3660.45
212,41.59,23.96,2907.18,1439.81,2046.62,8.8,1.27,2942.89,775.43,3657.51
213,41.1,23.64,2715.71,1404.11,2011.73,8.73,1.17,2742.52,750.89,3612.74
214,41.03,23.59,2694.46,1399.84,2009.58,8.69,1.13,2768.18,749.16,3604.21
215,41.23,23.73,2800.95,1413.93,2025.8,8.71,1.09,2826.53,759.72,3620.37
216,40.91,23.52,2646.38,1392.9,2001.93,8.66,1.12,2713.13,744.19,3588.8
217,40.91,23.53,2657.56,1390.6,2002.16,8.66,1.03,2722.7,744.53,3584.44
218,40.87,23.53,2651.2,1388.84,2002.36,8.65,1.03,2743.08,743.74,3580.6
219,40.99,23.62,2758.28,1395.46,2014.47,8.69,1.17,2762.62,747.7,3585.28
220,40.99,23.68,2775.67,1397.87,2018.96,8.75,1.02,2773.34,748.82,3584.35
221,41.69,24.14,3022.68,1447.9,2068.92,8.8,1.08,3138.32,787.33,3637.93
222,41.47,24.01,2942.52,1429.68,2056.73,8.8,1.12,3044.08,777.39,3611.61
223,41.46,24.03,2949.78,1428.97,2056.39,8.8,1.03,3032.84,775.22,3605.94
224,41.33,23.94,2906.63,1417.86,2047.39,8.8,1.09,2981.92,772.19,3594.54
225,40.71,23.53,2789.11,1369.11,1995.33,8.67,1.24,2805.64,740.76,3498.23
226,40.64,23.44,2779.16,1364.56,1991.23,8.66,0.63,2776.52,738.59,3486.75
227,40.59,23.43,2760.56,1361.84,1988.63,8.67,1.13,2770.94,737.12,3482.3
228,40.77,23.61,2822.3,1372.31,2003.9,8.71,1.1,2824.16,742.76,3493.57
229,40.74,23.61,2821.03,1371.53,2006.58,8.68,1.09,2841.05,741.13,3487.6
230,40.92,23.72,2888.89,1381.59,2014.44,8.68,0.96,2926.97,749.31,3497.29
231,40.92,23.74,2912.13,1384.24,2018.44,8.72,0.51,2981.36,754.32,3497.54
232,41.07,23.86,2988.13,1394.27,2035.68,8.7,1.06,3098.83,764.62,3509.61
233,41.29,24.0,3063.31,1410.62,2053.07,8.74,1.2,3166.11,773.75,3535.53
234,41.54,24.15,3148.02,1428.17,2071.12,8.84,1.1,3247.39,785.82,3573.12
235,41.84,24.35,3377.95,1451.94,2100.65,8.89,0.71,3390.1,799.33,3599.7
236,42.7,24.95,3868.52,1513.52,2174.07,9.09,1.32,3850.5,842.37,3669.47
237,42.58,24.83,3760.76,1498.8,2156.66,9.0,1.19,3792.6,831.4,3643.52
238,42.42,24.73,3697.63,1488.35,2149.95,9.0,1.41,3653.21,823.31,3630.9
239,41.67,24.21,3269.05,1434.17,2083.86,8.86,1.16,3328.91,792.03,3570.78
240,41.82,24.36,3418.78,1449.35,2101.51,8.89,0.82,3437.8,799.94,3586.31
241,41.82,24.37,3394.77,1448.3,2099.11,8.79,0.0,3416.04,802.17,3584.99
242,41.72,24.3,3320.46,1443.19,2090.07,8.84,0.99,3361.79,796.36,3574.82
243,41.49,24.18,3175.94,1428.83,2075.68,8.76,0.0,3221.1,789.54,3565.47
244,42.09,24.55,3497.51,1471.66,2122.17,8.88,0.77,3520.82,816.18,3611.14
245,42.68,24.96,3861.64,1509.35,2166.19,9.01,1.1,3824.79,841.34,3656.25
246,43.16,25.33,4192.42,1548.13,2212.04,9.06,1.12,4187.67,872.56,3700.83
247,43.39,25.52,4398.11,1562.19,2233.82,9.18,1.21,4369.9,888.87,3719.47
248,42.53,24.89,3810.5,1499.12,2160.94,9.07,1.39,3829.88,838.25,3634.12
249,42.35,24.72,3713.59,1484.48,2144.57,9.0,1.35,3717.05,826.14,3614.23
250,42.36,24.75,3694.12,1488.22,2145.56,9.04,1.21,3732.13,829.86,3618.06
251,43.1,25.3,4221.29,1545.19,2214.69,9.18,1.57,4192.86,875.62,3694.2
252,43.04,25.27,4180.9,1540.24,2205.15,9.2,1.51,4106.54,871.01,3678.82
253,42.15,24.65,3676.95,1478.52,2138.47,9.01,1.08,3641.05,826.29,3602.06
254,42.6,24.99,3916.67,1512.56,2173.85,9.12,1.51,3901.33,851.21,3644.41
255,42.26,24.81,3838.28,1482.37,2139.28,9.01,1.21,3823.6,835.24,3588.79
256,41.37,24.19,3350.04,1423.99,2072.67,8.83,1.31,3381.06,796.52,3527.46
257,40.94,23.86,2983.87,1394.88,2037.09,8.74,1.02,3025.77,771.45,3505.47
258,41.05,23.94,3036.16,1404.29,2046.64,8.77,1.16,3113.07,781.6,3521.93
259,41.32,24.18,3224.33,1427.5,2073.28,8.8,1.11,3269.42,795.84,3546.92
260,41.24,24.12,3187.51,1421.16,2069.84,8.81,0.9,3248.7,793.36,3538.13
261,40.53,23.6,2855.31,1372.58,2013.9,8.64,0.88,2854.82,755.39,3475.42
262,40.35,23.5,2740.72,1359.54,1997.42,8.66,1.14,2755.71,746.69,3460.57
263,40.09,23.35,2673.6,1348.6,1985.95,8.64,1.14,2710.63,739.9,3452.08
264,40.92,23.95,3033.55,1406.2,2049.79,8.79,1.39,3076.81,779.95,3516.55
265,40.88,23.97,3053.23,1404.21,2048.11,8.8,1.09,3089.93,779.27,3510.15
266,40.32,23.55,2780.77,1363.96,2004.68,8.69,1.26,2810.95,752.24,3461.42
267,39.71,23.17,2514.84,1324.44,1957.61,8.56,1.11,2571.19,727.41,3417.03
268,39.79,23.25,2543.03,1331.26,1965.6,8.56,1.04,2612.61,731.27,3422.49
269,39.7,23.2,2517.25,1325.66,1960.94,8.56,1.15,2579.31,729.07,3411.39
270,40.33,23.6,2769.58,1366.76,2008.88,8.72,1.22,2820.78,755.0,3465.55
271,41.66,24.59,3509.32,1462.13,2119.89,8.99,1.27,3538.09,820.79,3569.12
272,42.03,24.87,3707.77,1483.99,2154.93,9.07,1.19,3761.34,840.22,3593.38
273,42.24,24.98,3861.79,1495.99,2164.92,9.09,1.25,3857.29,851.62,3607.55
274,41.57,24.48,3444.16,1441.72,2109.93,8.95,0.96,3511.52,820.58,3538.43
275,40.29,23.59,2841.29,1355.27,2011.49,8.73,1.17,2835.48,752.56,3431.67
