,ALCOHOL_s1[PPM],MONOXIDO DE CARBONO_S1[PPM],DIHIDROGENO_s1[PPM],ACETONA_s1[PPM],METANO_s1[PPM],ALCOHOL_s2[PPM],MONOXIDO DE CARBONO_S2[PPM],DIHIDROGENO_s2[PPM],ACETONA_s2[PPM],METANO_s2[PPM]
0,11.1,10.54,2550496.75,360.0,1330.67,13.48,14.73,992.94,180.84,361.29
1,11.0,10.5,8466.99,359.92,1333.14,6.96,0.0,1017.28,183.18,360.3
2,11.07,10.49,8373.08,360.89,1333.09,6.87,0.0,1018.89,184.52,361.07
3,11.12,10.52,8577.15,363.13,1333.23,6.86,0.0,1026.96,186.45,365.32
4,11.31,10.54,8585.81,370.48,1333.23,6.84,0.4,1040.74,188.27,370.77
5,11.49,10.59,8287.45,377.21,1334.21,6.82,0.0,1058.58,189.05,378.86
6,11.76,10.59,8742.28,381.8,1335.18,6.83,0.0,1063.67,190.58,389.34
7,12.01,10.62,9011.63,387.8,1333.91,6.86,0.0,1072.37,193.24,398.13
8,12.31,10.67,9262.23,396.57,1335.22,6.86,0.34,1076.25,197.82,410.91
9,12.65,10.7,9450.99,403.53,1336.8,6.86,0.0,1095.32,200.38,423.24
10,12.97,10.74,9774.57,412.14,1337.91,6.87,0.39,1107.53,203.07,434.74
11,13.34,10.8,9932.99,422.86,1339.17,6.83,0.0,1103.31,206.65,447.58
12,13.67,10.77,10223.52,431.22,1339.87,6.88,0.0,1119.17,209.29,461.32
13,14.03,10.87,10701.24,440.43,1342.4,6.87,0.0,1126.19,211.0,474.41
14,14.41,10.91,10688.44,449.41,1343.33,6.89,0.0,1113.66,213.7,487.95
15,14.76,10.96,11222.83,455.95,1345.29,6.87,0.61,1123.23,216.47,502.35
16,15.16,11.03,11150.73,464.33,1348.9,6.87,0.0,1130.73,219.24,514.84
17,15.45,11.08,11251.62,473.26,1349.71,6.85,0.0,1125.8,222.5,527.93
18,15.83,11.12,11506.03,479.95,1352.45,6.96,0.48,1137.89,226.04,542.7
19,16.21,11.16,11565.87,487.58,1354.16,6.94,0.3,1127.07,226.2,555.54
20,16.52,11.18,12005.92,493.42,1355.6,6.96,0.38,1133.58,228.06,566.25
21,16.81,11.25,12094.7,499.86,1358.59,6.94,0.72,1132.23,232.6,577.94
22,17.17,11.28,12206.61,502.93,1358.95,6.99,0.0,1131.1,235.26,589.67
23,17.5,11.33,12329.69,508.73,1361.23,6.97,0.63,1132.71,236.33,600.09
24,17.72,11.35,12424.36,514.32,1364.25,6.97,0.65,1148.9,237.83,610.66
25,17.86,11.31,12779.22,509.63,1346.86,6.98,1.05,1105.09,236.01,612.87
26,18.06,11.31,12722.5,509.83,1343.32,6.95,0.85,1104.82,235.72,619.85
27,18.28,11.35,12929.16,515.33,1346.1,6.96,0.76,1107.06,237.58,630.53
28,18.68,11.43,13300.08,527.98,1371.19,7.03,0.58,1136.83,243.33,648.18
29,18.82,11.45,13535.7,530.43,1372.28,7.05,0.7,1126.99,243.96,656.69
30,19.09,11.46,13504.93,532.08,1372.48,7.02,0.71,1123.72,245.73,665.35
31,19.21,11.49,13379.34,531.91,1374.18,7.03,0.76,1122.38,245.46,672.29
32,19.35,11.49,13296.97,533.73,1373.03,7.04,0.57,1109.67,245.93,677.31
33,19.47,11.52,13749.08,535.06,1373.37,7.01,0.41,1113.97,247.33,683.44
34,19.7,11.55,13782.87,538.34,1376.43,7.05,0.49,1122.83,248.07,690.35
35,19.91,11.56,13784.32,540.04,1376.4,7.02,0.0,1120.7,248.12,695.67
36,19.97,11.6,13846.26,541.36,1375.5,7.04,0.0,1120.73,248.77,702.43
37,20.06,11.63,13819.38,543.2,1377.29,7.05,0.0,1123.53,248.68,708.95
38,20.2,11.65,13857.0,545.37,1379.86,7.03,0.66,1118.32,249.45,712.66
39,20.27,11.67,13992.33,544.98,1382.03,7.08,0.0,1122.15,250.35,715.18
40,20.33,11.71,14107.13,545.53,1381.78,7.06,0.0,1112.3,249.99,718.97
41,20.39,11.68,14322.35,545.51,1383.09,7.07,0.65,1109.66,249.97,723.44
42,20.45,11.71,14125.04,544.98,1384.45,7.05,0.56,1111.82,249.56,725.81
43,20.51,11.72,14115.87,544.83,1385.68,7.05,0.73,1112.99,250.55,727.74
44,20.56,11.73,13921.56,545.74,1387.02,7.08,0.8,1104.95,251.22,730.21
45,20.62,11.73,13670.83,545.76,1390.57,7.06,0.34,1119.33,251.35,732.29
46,20.64,11.75,13849.07,543.77,1393.2,7.08,0.31,1122.39,251.21,735.71
47,20.64,11.78,13974.28,544.01,1395.87,7.08,0.56,1110.28,251.24,737.72
48,20.67,11.79,13863.57,542.7,1393.17,7.08,0.44,1120.03,250.82,738.6
49,20.67,11.77,13770.47,541.47,1396.96,7.08,0.35,1128.11,251.05,739.82
50,20.68,11.82,14306.07,539.9,1397.12,7.08,1.47,1095.29,250.72,741.05
51,20.68,11.82,14100.96,538.8,1397.56,7.1,1.06,1097.8,251.19,742.15
52,20.69,11.82,13757.7,536.57,1399.65,7.1,0.33,1112.23,251.19,743.03
53,20.67,11.82,14367.17,536.54,1400.39,7.07,0.81,1106.27,250.23,743.45
54,20.66,11.84,13908.08,533.57,1401.68,7.08,0.59,1105.74,249.76,743.79
55,20.67,11.81,14127.18,533.24,1400.15,7.1,0.65,1111.46,249.43,743.12
56,20.66,11.82,13996.83,532.29,1400.54,7.12,0.58,1110.11,249.45,743.34
57,20.64,11.83,14183.39,531.71,1401.15,7.12,0.7,1106.34,249.12,742.99
58,20.63,11.84,13858.4,531.62,1401.6,7.1,0.6,1097.91,248.41,742.89
59,20.59,11.83,14521.93,530.48,1405.02,7.09,1.01,1106.06,248.46,742.11
60,20.57,11.83,13842.69,529.46,1402.27,7.11,0.54,1106.34,249.17,741.55
61,20.52,11.81,13458.47,526.5,1399.96,7.08,0.44,1124.64,248.86,740.56
62,20.51,11.82,13620.11,523.47,1401.98,7.11,0.51,1104.41,247.99,739.81
63,20.44,11.82,13942.41,521.41,1400.24,7.08,0.92,1115.79,247.3,739.47
64,20.43,11.81,13638.68,520.25,1395.88,7.07,0.74,1110.36,247.19,738.96
65,20.41,11.8,13565.88,519.69,1397.64,7.11,0.53,1113.94,246.73,737.82
66,20.41,11.79,13561.72,519.27,1399.73,7.1,0.48,1107.1,247.02,737.3
67,20.33,11.8,13951.51,518.73,1397.74,7.08,0.74,1114.78,246.15,736.25
68,20.3,11.8,13590.97,518.16,1399.41,7.1,0.52,1109.07,245.77,734.56
69,20.27,11.82,13861.45,517.57,1399.44,7.09,0.98,1095.92,244.89,733.75
70,20.25,11.81,13618.11,517.85,1397.65,7.11,0.5,1103.47,245.34,733.83
71,20.22,11.79,13653.01,516.5,1398.09,7.1,0.61,1108.38,244.38,732.57
72,20.19,11.8,13579.53,515.89,1398.62,7.08,0.84,1106.68,245.2,731.96
73,20.14,11.8,13672.1,512.0,1397.6,7.12,0.6,1100.81,243.86,730.06
74,20.09,11.79,13565.39,510.28,1395.75,7.12,0.0,1099.81,244.79,728.38
75,20.02,11.78,13403.88,508.87,1398.67,7.11,0.53,1103.36,243.53,727.47
76,19.96,11.77,13506.6,508.45,1399.75,7.09,0.7,1098.24,242.73,726.21
77,19.95,11.78,13407.2,506.84,1396.33,7.12,0.63,1101.2,242.61,725.65
78,19.95,11.78,13739.13,506.94,1396.98,7.09,0.82,1105.34,243.02,724.88
79,19.9,11.76,13453.89,505.65,1398.0,7.1,0.41,1088.22,242.95,722.82
80,19.84,11.74,13696.68,504.86,1398.86,7.09,0.8,1091.42,242.71,721.78
81,19.75,11.76,13235.65,502.41,1398.42,7.08,0.43,1103.59,241.73,721.74
82,19.67,11.77,13479.91,501.4,1396.67,7.11,0.86,1101.87,242.02,719.64
83,19.61,11.76,13515.96,501.47,1397.27,7.12,0.0,1099.43,241.35,717.67
84,19.56,11.74,13342.73,500.22,1398.27,7.1,0.58,1107.81,240.99,716.79
85,19.49,11.76,13676.12,500.88,1396.82,7.1,0.73,1097.04,240.4,715.36
86,19.46,11.74,13441.57,498.99,1399.57,7.09,0.66,1091.57,239.72,714.74
87,19.42,11.75,13431.41,499.33,1399.55,7.11,0.78,1089.12,238.97,713.78
88,19.39,11.72,13040.36,498.11,1400.08,7.09,0.0,1091.5,239.0,712.33
89,19.36,11.73,13095.18,496.69,1398.96,7.11,0.32,1093.83,237.86,711.71
90,19.34,11.71,12683.02,495.27,1397.58,7.11,0.0,1094.94,237.95,710.92
91,19.28,11.72,12684.33,493.7,1399.95,7.11,0.0,1095.95,237.67,709.27
92,19.27,11.7,12746.31,493.1,1399.49,7.1,0.49,1097.82,236.85,706.92
93,19.24,11.72,13058.39,493.16,1397.72,7.08,0.71,1089.9,236.32,706.07
94,19.22,11.7,13086.68,490.86,1398.09,7.08,0.67,1092.89,236.34,704.39
95,19.17,11.69,13003.68,491.66,1400.01,7.12,0.76,1086.27,235.51,702.91
96,19.14,11.7,13106.94,490.67,1396.19,7.11,0.71,1083.57,234.56,700.6
97,19.08,11.7,12987.76,490.25,1399.33,7.08,0.0,1094.03,235.12,698.61
98,19.05,11.71,12935.23,490.24,1399.05,7.11,0.52,1091.11,235.26,697.92
99,18.98,11.69,13027.95,488.71,1397.0,7.09,0.66,1092.87,235.79,695.74
100,18.93,11.69,12928.35,487.81,1398.21,7.14,0.66,1083.09,234.9,694.08
101,18.82,11.66,12728.69,486.36,1399.84,7.11,0.77,1076.77,234.87,691.93
102,18.8,11.65,12872.24,483.76,1399.07,7.08,0.43,1073.35,233.3,689.63
103,18.78,11.66,13020.62,483.3,1399.17,7.08,0.0,1081.18,233.59,689.48
104,18.81,11.67,12502.94,484.1,1396.52,7.09,0.0,1102.96,233.68,688.53
105,18.8,11.68,12548.83,482.28,1397.98,7.08,0.0,1084.07,234.77,688.3
106,18.79,11.69,12719.24,483.29,1399.28,7.08,0.39,1083.87,234.03,686.09
107,18.74,11.69,12876.23,483.13,1398.06,7.1,0.88,1094.35,233.8,684.84
108,18.62,11.65,12539.09,481.87,1398.04,7.1,0.0,1098.95,233.68,683.17
109,18.59,11.65,12569.49,480.3,1395.56,7.1,0.6,1086.86,232.77,681.88
110,18.53,11.62,12578.99,478.26,1398.13,7.1,0.0,1074.07,232.68,680.1
111,18.51,11.61,12850.5,478.22,1397.18,7.09,0.42,1083.67,231.93,680.12
112,18.51,11.62,12492.41,477.44,1399.47,7.1,0.79,1069.94,231.16,678.75
113,18.43,11.59,12714.38,476.43,1398.1,7.11,0.85,1070.2,231.29,677.44
114,18.4,11.6,12479.13,475.6,1396.3,7.11,0.47,1072.83,231.14,677.18
115,18.31,11.59,12675.56,475.99,1399.49,7.09,0.82,1074.27,231.26,675.82
116,18.27,11.6,12613.57,474.76,1395.63,7.1,0.45,1069.15,230.67,675.01
117,18.26,11.59,12655.39,473.4,1399.08,7.09,0.69,1067.35,231.05,673.58
118,18.27,11.6,12588.04,473.6,1397.79,7.06,0.64,1074.14,231.14,672.85
119,18.27,11.58,12560.36,473.1,1398.54,7.11,0.0,1066.81,230.68,672.19
120,18.24,11.57,12685.29,471.21,1397.38,7.11,0.65,1069.07,229.96,671.18
121,18.24,11.57,12250.38,471.91,1398.93,7.1,0.0,1085.13,230.54,669.69
122,18.2,11.57,12734.99,472.05,1397.97,7.1,0.59,1078.11,229.45,668.3
123,18.1,11.57,12708.92,470.55,1397.55,7.07,1.78,1061.4,228.58,668.68
124,18.04,11.56,12496.11,470.7,1399.63,7.12,1.01,1060.68,229.12,667.55
125,18.02,11.55,12134.3,470.68,1399.45,7.08,0.52,1073.02,227.43,665.52
126,17.96,11.54,12389.26,470.67,1399.89,7.12,0.74,1060.67,227.41,663.16
127,17.94,11.54,12761.69,470.13,1399.42,7.11,0.0,1064.19,227.65,661.43
128,17.93,11.51,12245.72,467.31,1399.57,7.07,0.39,1077.52,226.59,659.54
129,17.9,11.52,12439.6,467.36,1402.05,7.08,0.0,1049.57,227.02,658.27
130,17.89,11.5,12287.95,466.67,1402.67,7.1,0.62,1057.86,227.23,657.67
131,17.89,11.52,12049.94,466.41,1398.96,7.09,0.49,1055.77,226.69,656.82
132,17.83,11.52,12358.17,465.97,1399.78,7.09,0.0,1043.38,226.97,656.48
133,17.8,11.53,12729.94,466.69,1401.48,7.09,1.53,1055.88,226.46,655.67
134,17.78,11.5,12478.76,465.07,1400.11,7.11,1.83,1050.17,226.65,654.42
135,17.71,11.48,12292.0,464.26,1401.68,7.09,0.76,1058.73,227.17,651.13
136,17.69,11.48,12455.91,462.94,1400.08,7.08,0.0,1060.47,227.41,650.07
137,17.67,11.48,12366.42,462.8,1401.0,7.08,0.75,1060.02,227.27,649.06
138,17.59,11.43,12285.72,456.58,1383.49,7.05,0.0,1026.64,222.34,640.63
139,17.54,11.43,12090.34,455.79,1384.18,7.05,0.0,1028.99,223.18,639.57
140,17.62,11.48,12344.45,460.54,1398.58,7.05,0.73,1062.35,226.35,646.07
141,17.63,11.48,12016.48,460.34,1398.51,7.09,0.54,1069.61,226.91,646.25
142,17.6,11.49,12639.63,461.7,1399.72,7.1,1.83,1047.77,226.05,646.11
143,17.59,11.47,12255.58,460.65,1398.5,7.08,0.57,1070.77,227.13,644.93
144,17.58,11.47,12138.39,458.55,1401.09,7.11,0.0,1063.6,226.18,643.62
145,17.54,11.47,12190.44,458.78,1401.96,7.07,0.69,1055.54,227.12,642.34
146,17.5,11.46,12180.86,457.1,1400.85,7.07,0.98,1062.75,226.99,640.1
147,17.48,11.45,11961.44,457.01,1398.96,7.1,0.61,1048.78,225.96,638.54
148,17.44,11.45,11821.56,456.8,1400.37,7.07,0.39,1065.17,225.97,637.0
149,17.4,11.44,11774.15,456.11,1401.83,7.06,0.5,1062.11,226.87,636.81
150,17.39,11.45,11812.29,456.13,1400.04,7.07,0.65,1055.3,226.44,635.51
151,17.34,11.46,12313.09,456.79,1401.4,7.08,0.0,1043.09,226.22,635.72
152,17.34,11.47,11844.72,456.04,1400.04,7.07,1.02,1055.01,226.03,635.67
153,17.32,11.46,11749.59,456.0,1400.08,7.08,0.55,1056.97,225.96,635.28
154,17.31,11.45,11602.15,456.8,1399.51,7.07,0.36,1070.94,226.65,634.46
155,17.29,11.44,11655.14,456.76,1400.46,7.04,0.32,1071.21,227.24,633.43
156,17.26,11.44,12009.09,456.1,1401.94,7.11,0.37,1070.54,226.66,632.49
157,17.24,11.44,11952.87,455.45,1401.21,7.08,0.67,1061.98,226.3,632.22
158,17.24,11.44,12216.18,455.63,1401.22,7.07,0.92,1061.76,225.54,630.69
159,17.21,11.44,11638.92,454.51,1401.99,7.09,0.45,1074.77,225.66,630.13
160,17.2,11.43,11687.4,454.31,1401.04,7.11,0.44,1073.1,224.87,629.33
161,17.13,11.42,11787.58,454.35,1401.27,7.08,0.29,1072.37,224.69,628.32
162,17.15,11.46,11934.09,453.94,1401.51,7.09,0.44,1053.71,224.89,628.37
163,17.1,11.43,12266.06,454.09,1402.86,7.08,0.95,1054.15,224.54,627.23
164,17.09,11.44,11939.07,453.21,1403.07,7.08,0.0,1053.86,224.32,626.3
165,17.03,11.42,12150.57,453.18,1401.89,7.08,0.0,1056.05,224.13,625.77
166,17.02,11.44,11993.57,451.87,1401.75,7.1,1.85,1050.37,223.3,623.94
167,16.99,11.42,11636.82,451.94,1401.64,7.08,0.44,1064.38,223.8,621.59
168,16.96,11.41,11304.72,451.31,1401.6,7.04,0.36,1103.02,223.9,620.79
169,16.93,11.41,11883.55,451.94,1399.22,7.05,0.76,1058.48,223.52,620.15
170,16.96,11.46,11700.15,452.09,1399.91,7.04,0.0,1053.44,223.95,618.55
171,16.9,11.41,11858.47,452.05,1404.7,7.04,0.0,1070.85,223.58,617.98
172,16.93,11.45,11521.0,450.85,1403.25,7.01,0.37,1073.02,223.48,616.9
173,16.88,11.43,11570.15,449.64,1400.48,7.01,0.0,1059.41,222.52,615.8
174,16.86,11.43,11733.92,449.38,1402.75,7.03,0.0,1047.62,222.11,615.74
175,16.86,11.42,11558.32,449.12,1402.67,7.04,0.0,1069.4,222.36,615.12
176,16.84,11.44,11708.75,450.43,1400.66,7.03,0.0,1068.37,222.4,615.19
177,16.84,11.42,11773.73,450.36,1402.27,7.01,0.0,1075.51,222.67,614.45
178,16.85,11.43,11541.51,449.11,1400.41,6.93,0.0,1105.43,224.41,614.72
179,16.84,11.45,11630.06,450.57,1401.09,6.89,0.0,1093.98,223.84,613.78
180,16.8,11.4,13840.09,448.62,1398.95,7.03,0.0,1086.76,222.29,613.52
181,16.65,11.33,15441.84,441.02,1380.6,7.09,1.47,1031.82,218.12,604.6
182,16.55,11.29,13103.2,437.99,1374.39,7.1,1.46,1009.69,216.23,600.53
183,16.53,11.27,11768.78,437.09,1375.06,7.07,1.01,1015.61,216.35,598.98
184,16.53,11.27,11112.0,436.62,1372.34,7.05,0.78,1016.55,216.38,598.38
185,16.53,11.26,11165.8,436.43,1369.77,7.04,0.52,1026.53,216.06,598.27
186,16.54,11.27,11245.85,436.0,1371.2,7.02,0.0,1010.21,215.59,597.46
187,16.51,11.23,11009.4,432.69,1368.26,7.01,0.89,1016.34,214.99,596.81
188,16.5,11.25,11024.93,433.48,1373.16,7.03,0.51,1010.13,216.16,596.14
189,16.52,11.29,11180.07,439.72,1386.73,7.06,0.0,1034.52,217.28,599.49
190,16.52,11.29,11268.21,438.92,1388.42,7.07,0.59,1028.13,216.82,598.89
191,16.51,11.28,11204.53,437.27,1384.31,7.07,0.64,1017.85,216.35,597.63
192,16.41,11.2,11002.09,429.67,1377.82,7.03,0.63,1006.82,214.61,592.32
193,16.46,11.23,11101.6,433.44,1381.69,7.1,0.75,1019.27,215.58,594.67
194,16.5,11.29,11335.15,437.73,1382.14,7.1,0.0,1031.59,216.99,597.22
195,16.52,11.28,11254.41,437.61,1383.24,7.06,0.87,1025.34,216.28,597.05
196,16.54,11.29,11136.28,438.52,1383.09,7.03,0.45,1029.7,216.67,597.92
197,16.47,11.28,10921.07,437.98,1382.79,7.02,0.0,1031.28,216.15,596.55
198,16.45,11.26,11081.26,436.38,1381.28,7.02,0.0,1021.89,216.48,595.82
199,16.51,11.29,10969.55,438.95,1382.86,7.02,0.69,1038.19,217.22,597.06
200,16.49,11.31,10979.48,440.89,1386.95,7.04,0.69,1037.32,217.58,598.83
201,16.44,11.26,11112.7,438.09,1382.38,7.03,0.92,1024.42,217.06,596.11
202,16.43,11.28,11329.45,437.97,1382.36,7.06,0.0,1037.02,216.56,596.18
203,16.5,11.31,11391.05,440.41,1386.15,7.05,0.75,1038.08,217.95,598.29
204,16.42,11.27,11385.68,437.85,1382.78,7.06,0.54,1031.87,217.15,595.64
205,16.51,11.33,11493.7,441.56,1386.61,7.05,0.8,1040.82,219.6,598.44
206,16.51,11.35,11434.98,442.2,1388.36,7.07,0.67,1052.02,219.95,599.6
207,16.48,11.33,11670.21,442.24,1389.17,7.07,0.57,1055.1,220.29,598.73
208,16.48,11.34,11778.77,443.91,1392.63,7.07,1.6,1040.26,220.43,600.1
209,16.48,11.35,11877.65,444.41,1388.28,7.07,0.79,1048.62,220.66,600.11
210,16.47,11.34,11493.0,444.14,1389.62,7.06,0.94,1050.15,220.48,599.98
211,16.47,11.37,11798.22,444.68,1390.84,7.06,0.88,1055.83,220.63,600.33
212,16.46,11.35,11571.65,445.07,1392.03,7.05,0.55,1062.97,220.66,600.1
213,16.45,11.36,11635.64,445.93,1391.67,7.05,0.92,1046.75,221.43,600.75
214,16.42,11.36,11412.95,445.56,1391.57,7.04,0.0,1053.57,221.44,600.26
215,16.42,11.36,11657.43,445.52,1388.69,7.06,0.84,1043.69,220.77,600.49
216,16.39,11.35,11397.28,446.1,1387.69,7.07,0.68,1050.17,221.69,600.02
217,16.39,11.37,11519.85,446.4,1388.07,7.05,0.82,1052.65,221.14,599.9
218,16.4,11.37,11301.48,445.99,1390.66,7.05,0.55,1056.63,221.7,600.05
219,16.37,11.37,11353.34,446.14,1390.71,7.08,1.01,1049.81,221.34,599.25
220,16.37,11.35,11336.69,445.94,1391.7,7.04,0.0,1048.96,220.71,598.76
221,16.33,11.35,11304.53,445.77,1389.59,7.06,0.0,1047.19,221.93,598.76
222,16.28,11.36,11300.88,445.67,1391.64,7.07,0.83,1037.5,221.3,598.33
223,16.31,11.35,11507.82,445.09,1392.38,7.04,0.86,1040.84,220.86,598.23
224,16.26,11.35,11448.82,444.61,1388.9,7.07,0.63,1047.37,220.85,597.76
225,16.27,11.37,11461.75,445.13,1389.37,7.06,0.0,1047.38,221.53,598.0
226,16.27,11.36,11460.22,444.78,1391.52,7.07,0.52,1049.4,221.39,597.85
227,16.22,11.35,11456.66,445.81,1389.66,7.07,0.68,1051.82,221.11,597.57
228,16.23,11.37,11267.62,445.02,1391.15,7.08,0.66,1048.3,221.0,598.1
229,16.24,11.36,11425.05,444.9,1391.38,7.08,0.76,1050.26,220.77,598.02
230,16.22,11.36,11260.56,444.38,1390.31,7.08,0.73,1054.37,221.32,596.45
231,16.19,11.37,11394.08,444.49,1391.82,7.05,0.62,1044.48,222.24,595.99
232,16.21,11.37,11370.57,443.8,1391.35,7.06,0.85,1049.19,221.01,596.48
233,16.17,11.36,11457.8,444.11,1390.31,7.03,0.77,1043.22,220.28,595.89
234,16.15,11.35,11171.42,442.9,1387.77,7.04,0.0,1043.14,220.19,595.21
235,16.17,11.35,11023.37,442.65,1388.7,7.05,0.0,1044.82,220.11,593.59
236,16.13,11.35,10953.91,442.14,1387.99,7.06,0.38,1034.37,220.5,593.92
237,16.17,11.36,11205.36,444.73,1395.64,7.06,0.35,1059.19,221.92,596.1
238,16.17,11.37,10914.52,443.68,1392.08,7.02,0.0,1053.31,221.05,593.91
239,16.17,11.36,11134.25,443.53,1388.94,6.97,0.0,1066.3,221.08,593.57
240,16.16,11.38,11220.07,443.62,1390.98,7.02,0.77,1059.44,220.52,592.51
241,16.1,11.37,11569.25,443.29,1389.64,7.07,0.67,1046.15,221.79,593.35
242,16.1,11.36,11449.25,443.19,1393.18,7.09,0.69,1046.05,220.23,592.89
243,16.13,11.37,11418.42,444.33,1392.84,7.06,0.66,1057.65,220.3,592.85
244,16.12,11.36,11393.22,443.33,1392.1,7.08,0.82,1049.73,220.44,593.01
245,16.1,11.35,11459.72,443.43,1392.73,7.05,0.65,1047.24,220.11,592.18
246,16.08,11.35,11334.79,442.48,1391.59,7.04,0.84,1053.24,220.53,592.31
247,16.01,11.3,11399.07,437.51,1376.2,7.05,0.0,1028.27,218.0,585.07
248,15.92,11.23,11302.47,432.23,1363.35,7.0,0.72,1021.61,215.96,580.76
249,15.92,11.24,10723.08,432.31,1363.08,7.02,0.54,1015.16,216.42,579.66
250,15.91,11.23,10661.53,433.71,1365.47,6.99,0.48,1019.66,216.27,579.62
251,15.93,11.23,10790.77,432.89,1363.5,7.0,0.0,1025.65,216.36,579.31
252,15.89,11.25,10129.23,432.12,1363.76,6.99,0.0,1018.61,216.5,579.2
253,15.9,11.24,10443.58,433.28,1363.13,6.97,0.0,1012.68,216.51,579.11
254,15.91,11.23,11125.92,433.36,1363.98,7.03,0.69,1014.27,216.57,579.26
255,15.9,11.24,11185.55,432.35,1360.9,7.04,0.61,1018.8,215.79,578.54
256,15.88,11.23,11180.17,432.46,1360.24,7.02,0.66,1005.05,216.54,578.04
257,15.87,11.22,11050.03,432.91,1360.82,7.0,0.7,1022.44,216.18,577.67
258,15.91,11.29,11218.13,436.77,1372.57,7.02,0.93,1023.51,217.98,581.85
259,15.97,11.35,11338.11,441.28,1384.84,7.05,0.73,1039.09,220.36,586.06
260,16.0,11.34,11424.61,442.45,1388.16,7.08,0.0,1052.06,220.84,586.72
261,15.99,11.36,11225.55,443.1,1389.09,7.06,0.54,1048.49,220.81,586.93
262,15.97,11.35,11524.8,441.82,1387.19,7.06,0.0,1049.02,220.23,586.2
263,15.98,11.35,11460.15,442.21,1388.41,7.08,0.76,1043.3,221.0,586.15
264,15.96,11.38,11494.04,443.39,1389.84,7.05,0.74,1059.4,220.92,586.78
265,15.96,11.36,11305.88,443.28,1389.89,7.06,0.44,1065.08,221.9,586.93
266,15.97,11.37,11548.62,443.69,1388.37,7.06,0.69,1054.68,221.53,586.67
267,15.96,11.37,11393.4,443.83,1390.1,7.05,0.88,1049.73,222.2,586.82
268,15.96,11.39,11329.3,443.75,1390.82,7.08,0.55,1047.36,222.3,586.65
269,15.98,11.38,11741.21,445.35,1391.34,7.07,1.7,1042.2,223.0,587.65
270,15.95,11.38,11728.33,445.19,1393.39,7.05,1.08,1048.66,223.06,587.77
271,15.96,11.39,11610.6,445.27,1393.71,7.06,0.0,1053.47,223.74,587.87
272,15.94,11.38,11553.12,445.21,1391.35,7.03,0.62,1053.82,222.92,587.63
273,15.92,11.39,11497.55,445.37,1390.64,7.07,0.78,1048.72,223.58,587.54
274,15.93,11.39,11610.89,446.49,1391.43,7.03,0.0,1051.82,224.29,588.45
275,15.92,11.39,11676.38,446.86,1391.97,7.08,0.0,1057.14,224.53,588.58
276,15.91,11.4,11509.73,446.59,1394.23,7.08,0.81,1049.52,224.74,588.52
277,15.9,11.39,11741.43,446.07,1393.58,7.05,0.82,1054.21,224.37,587.24
278,15.9,11.37,11651.91,445.77,1392.39,7.06,0.66,1053.79,223.78,586.07
279,15.9,11.4,11254.96,445.37,1391.5,7.07,0.0,1046.05,224.37,586.52
280,15.89,11.39,10720.68,446.03,1393.32,7.03,0.0,1052.74,224.33,586.12
