,ALCOHOL_s1[PPM],MONOXIDO DE CARBONO_S1[PPM],DIHIDROGENO_s1[PPM],ACETONA_s1[PPM],METANO_s1[PPM],ALCOHOL_s2[PPM],MONOXIDO DE CARBONO_S2[PPM],DIHIDROGENO_s2[PPM],ACETONA_s2[PPM],METANO_s2[PPM]
0,18.95,18.74,2955.72,534.25,1727.82,13.61,4.26,2670.35,306.93,760.28
1,19.24,18.85,2969.77,540.3,1731.54,8.19,0.67,2695.54,314.38,757.81
2,19.23,18.77,2897.48,535.21,1721.41,8.0,0.62,2670.98,310.24,756.42
3,19.44,18.87,2952.77,546.76,1721.53,8.0,1.43,2701.66,314.25,774.52
4,20.05,18.89,2932.41,559.51,1714.7,7.96,0.0,2741.05,318.92,801.98
5,20.77,19.01,2974.47,584.58,1717.65,7.99,1.84,2777.94,327.61,848.75
6,21.78,19.06,2936.09,616.94,1714.9,7.99,0.96,2833.27,335.91,901.56
7,22.84,19.29,2934.56,651.58,1718.5,7.98,0.8,2926.04,350.1,965.81
8,24.13,19.53,2953.22,693.92,1723.07,8.03,1.71,3015.81,360.91,1036.29
9,25.45,19.83,2968.38,731.54,1730.37,8.01,1.05,3096.2,371.93,1113.59
10,26.82,19.99,2936.97,769.28,1728.2,8.05,0.72,3134.17,383.99,1193.41
11,28.32,20.23,2972.34,809.33,1734.69,8.02,0.8,3188.71,401.32,1282.22
12,29.92,20.63,3018.2,860.63,1751.03,8.04,0.0,3389.9,418.55,1378.36
13,31.49,20.89,3099.83,903.35,1760.59,8.05,0.86,3429.98,435.34,1473.01
14,33.13,21.27,3264.19,954.65,1779.62,8.13,0.0,3552.3,455.51,1575.77
15,34.55,21.49,3229.96,992.01,1780.47,8.11,0.58,3567.12,464.69,1666.55
16,35.93,21.71,3226.89,1026.23,1786.73,8.14,1.01,3602.57,473.93,1760.02
17,37.03,21.7,3022.22,1038.41,1765.56,8.1,0.84,3428.18,472.18,1834.06
18,38.53,22.09,3202.2,1089.9,1789.87,8.17,1.13,3574.52,497.33,1945.04
19,39.62,22.13,3077.54,1111.33,1784.99,8.17,0.0,3534.66,501.96,2028.98
20,40.85,22.37,3104.58,1139.14,1789.49,8.14,1.34,3541.04,512.38,2119.3
21,42.07,22.66,3173.99,1177.4,1799.73,8.18,1.24,3639.87,523.36,2215.52
22,42.91,22.7,3041.72,1190.4,1792.75,8.16,0.63,3539.97,524.97,2288.91
23,44.04,22.97,3148.12,1223.13,1805.8,8.14,2.1,3568.9,536.51,2383.21
24,44.86,23.08,3097.82,1240.84,1803.77,8.19,2.09,3529.29,539.92,2455.54
25,45.54,23.15,3013.48,1254.95,1801.47,8.16,0.84,3581.01,544.63,2528.35
26,46.34,23.3,2998.79,1271.69,1806.6,8.16,1.32,3498.08,550.75,2601.71
27,47.26,23.48,3025.86,1292.85,1813.94,8.2,1.17,3579.84,559.91,2681.44
28,47.82,23.59,3007.45,1303.85,1816.55,8.23,1.03,3527.54,563.13,2745.32
29,48.51,23.72,3003.12,1323.6,1826.39,8.22,0.61,3623.69,568.84,2812.16
30,48.8,23.65,2911.8,1317.65,1813.53,8.21,1.38,3418.75,561.97,2853.55
31,49.12,23.62,2847.24,1313.53,1803.87,8.17,0.0,3307.84,559.03,2900.48
32,49.63,23.77,2867.99,1328.58,1807.58,8.17,2.21,3316.4,563.08,2956.33
33,50.28,23.97,2966.59,1352.35,1827.06,8.23,1.51,3415.17,570.26,3019.37
34,50.83,24.15,3015.17,1369.15,1846.64,8.25,1.13,3499.06,585.38,3080.84
35,51.17,24.21,3005.0,1376.61,1850.23,8.28,1.12,3503.25,591.56,3130.0
36,51.51,24.29,3018.82,1385.86,1860.51,8.34,1.0,3553.2,595.59,3171.5
37,51.65,24.25,2977.28,1382.78,1855.0,8.28,1.18,3496.92,590.07,3202.92
38,51.89,24.34,3001.61,1384.67,1861.57,8.29,1.36,3481.28,594.42,3240.84
39,51.83,24.21,2900.68,1372.75,1846.41,8.24,1.11,3373.94,582.14,3252.18
40,51.93,24.21,2922.52,1371.52,1845.38,8.18,1.36,3364.7,581.34,3280.13
41,52.27,24.36,2969.82,1385.12,1864.38,8.31,0.69,3464.23,595.3,3326.26
42,52.69,24.58,3104.85,1404.15,1887.31,8.39,2.02,3530.86,603.74,3373.76
43,52.52,24.47,3012.04,1389.22,1874.36,8.38,2.01,3407.53,597.76,3380.99
44,52.29,24.23,2859.5,1365.38,1854.76,8.24,1.01,3291.75,580.16,3370.15
45,52.21,24.21,2790.26,1359.91,1848.46,8.25,0.0,3244.42,574.58,3381.07
46,52.15,24.21,2830.31,1353.3,1846.19,8.23,1.65,3154.58,570.04,3387.85
47,52.15,24.2,2823.59,1350.98,1848.36,8.22,0.0,3128.66,568.98,3403.71
48,52.08,24.17,2748.72,1344.42,1847.92,8.26,0.5,3127.81,568.11,3413.99
49,52.06,24.17,2763.09,1341.85,1850.39,8.3,0.86,3116.54,568.59,3422.66
50,51.96,24.16,2780.87,1338.5,1851.87,8.33,0.71,3126.38,568.24,3426.94
51,51.88,24.14,2792.68,1332.94,1852.11,8.32,1.45,3053.95,566.39,3429.14
52,51.8,24.12,2784.69,1325.91,1854.12,8.33,1.09,3042.6,565.38,3435.65
53,51.73,24.11,2776.87,1320.05,1856.01,8.31,0.97,3064.12,564.96,3435.22
54,51.67,24.11,2779.5,1315.17,1858.47,8.32,1.02,3051.55,564.17,3439.4
55,51.56,24.08,2793.96,1312.66,1863.12,8.4,0.86,3042.51,564.19,3444.65
56,51.45,24.07,2778.04,1307.27,1866.15,8.36,0.99,3056.83,563.01,3440.83
57,51.32,24.05,2798.33,1303.64,1866.28,8.35,1.14,3051.55,561.94,3434.77
58,51.1,24.0,2796.84,1291.9,1864.02,8.35,0.0,3025.89,558.94,3429.74
59,50.94,23.96,2774.8,1285.44,1864.52,8.34,1.42,3011.09,557.38,3422.51
60,50.85,23.96,2788.14,1282.65,1869.2,8.37,1.5,3004.57,557.76,3419.04
61,50.66,23.94,2801.0,1276.58,1870.17,8.39,2.05,3003.77,556.18,3413.24
62,50.55,23.92,2778.11,1277.52,1873.77,8.42,0.6,3030.92,556.56,3412.61
63,50.41,23.9,2786.79,1271.0,1874.83,8.42,1.97,3010.44,554.69,3407.05
64,50.24,23.84,2780.49,1264.85,1872.3,8.37,1.6,2987.86,550.48,3391.77
65,49.99,23.8,2801.17,1259.0,1873.45,8.36,0.0,2961.4,547.1,3381.23
66,49.85,23.75,2809.6,1254.95,1873.53,8.42,1.26,2962.99,545.14,3372.4
67,49.65,23.71,2783.51,1247.0,1871.8,8.36,1.45,2924.68,541.81,3359.05
68,49.5,23.68,2804.34,1236.84,1871.84,8.36,1.94,2906.44,540.07,3349.74
69,49.26,23.62,2805.75,1229.63,1870.02,8.34,1.81,2897.89,539.47,3336.93
70,49.07,23.59,2764.86,1225.13,1869.86,8.4,1.03,2885.76,539.11,3327.51
71,48.94,23.57,2765.14,1221.34,1873.43,8.41,0.48,2942.94,537.62,3316.44
72,48.8,23.58,2800.83,1218.68,1877.03,8.38,0.84,2935.15,539.33,3309.2
73,48.64,23.54,2832.01,1212.4,1876.6,8.39,2.09,2938.56,537.67,3303.64
74,48.38,23.46,2793.32,1203.0,1873.04,8.4,1.02,2897.33,533.56,3277.94
75,48.2,23.42,2767.97,1199.86,1875.12,8.39,0.72,2921.88,532.62,3270.87
76,48.02,23.38,2770.92,1195.86,1876.18,8.38,0.94,2892.09,531.42,3256.72
77,47.82,23.33,2798.63,1191.38,1874.36,8.38,1.89,2841.66,527.31,3242.69
78,47.67,23.29,2764.91,1184.76,1874.87,8.37,0.95,2845.65,526.63,3226.74
79,47.5,23.28,2790.45,1183.26,1874.49,8.35,0.92,2848.49,526.58,3219.96
80,47.36,23.25,2778.16,1176.16,1872.19,8.35,0.0,2810.7,524.39,3204.25
81,47.14,23.2,2766.54,1167.45,1869.78,8.34,0.77,2827.01,522.72,3189.72
82,46.88,23.17,2810.81,1157.24,1867.12,8.38,1.66,2812.91,522.03,3174.11
83,46.75,23.15,2824.85,1153.26,1869.18,8.38,1.44,2818.64,521.08,3164.46
84,46.49,23.09,2757.14,1148.31,1866.47,8.33,0.68,2874.57,518.16,3148.92
85,46.34,23.06,2792.09,1145.01,1864.28,8.36,1.45,2799.28,516.38,3138.84
86,46.21,23.02,2755.28,1141.52,1866.1,8.33,0.45,2848.81,515.67,3122.3
87,45.99,22.99,2792.02,1138.2,1866.68,8.36,1.07,2820.95,514.9,3113.52
88,45.77,22.96,2791.75,1129.88,1865.69,8.39,1.31,2801.81,514.0,3100.19
89,45.62,22.87,2750.36,1126.96,1861.97,8.35,0.0,2811.14,512.09,3083.79
90,45.32,22.75,2663.85,1117.3,1850.49,8.24,1.15,2746.61,507.39,3066.38
91,45.11,22.72,2666.64,1114.23,1851.13,8.31,1.04,2763.11,505.33,3049.27
92,45.05,22.71,2666.55,1109.75,1851.22,8.29,0.85,2751.37,504.62,3037.02
93,45.0,22.73,2700.61,1106.22,1852.46,8.31,1.03,2756.04,504.93,3029.66
94,44.78,22.67,2702.09,1101.72,1848.21,8.26,1.04,2743.44,502.5,3012.67
95,44.7,22.69,2767.24,1101.46,1854.49,8.32,1.19,2771.28,503.51,3009.94
96,44.61,22.71,2772.54,1101.74,1859.8,8.29,0.92,2797.14,505.49,3002.61
97,44.55,22.71,2784.58,1100.96,1863.96,8.3,0.78,2807.06,506.08,2997.47
98,44.52,22.72,2784.89,1101.25,1867.27,8.36,0.0,2817.75,507.78,2988.36
99,44.46,22.72,2771.45,1100.28,1870.22,8.39,0.72,2835.64,507.88,2981.16
100,44.36,22.71,2783.24,1098.87,1870.79,8.34,0.95,2820.78,507.19,2971.05
101,44.18,22.67,2775.56,1095.22,1870.23,8.38,0.87,2820.81,506.69,2960.3
102,43.94,22.67,2773.66,1092.24,1870.04,8.41,1.03,2829.17,505.72,2951.02
103,43.85,22.64,2803.97,1090.86,1870.67,8.39,1.08,2820.62,503.49,2934.39
104,43.74,22.62,2805.5,1086.96,1871.23,8.42,0.96,2814.28,504.05,2930.54
105,43.6,22.59,2795.41,1083.48,1871.85,8.41,1.3,2824.52,503.27,2925.33
106,43.5,22.59,2790.19,1082.6,1872.42,8.4,1.11,2809.91,503.32,2915.77
107,43.41,22.59,2807.46,1080.38,1873.64,8.41,1.07,2806.67,503.06,2904.38
108,43.29,22.56,2791.68,1075.96,1872.43,8.4,1.36,2842.89,502.95,2892.71
109,43.18,22.5,2797.49,1072.77,1868.06,8.41,1.06,2845.82,500.0,2881.51
110,43.04,22.44,2787.27,1066.81,1864.96,8.37,1.35,2806.58,496.62,2865.78
111,42.93,22.45,2778.57,1068.51,1868.9,8.38,1.18,2796.62,498.0,2861.2
112,42.75,22.38,2797.76,1061.43,1865.05,8.36,1.25,2823.25,494.15,2848.42
113,42.64,22.33,2779.57,1058.46,1863.07,8.36,1.07,2837.91,493.15,2837.79
114,42.5,22.23,2784.64,1051.65,1854.64,8.35,0.93,2805.86,489.68,2822.18
115,42.39,22.22,2791.82,1051.29,1854.06,8.32,1.09,2808.69,489.26,2814.16
116,42.29,22.18,2783.82,1046.85,1851.59,8.35,1.1,2771.86,488.11,2802.8
117,42.19,22.17,2798.86,1046.31,1853.31,8.33,1.08,2801.6,487.72,2798.09
118,42.07,22.15,2797.74,1042.94,1851.51,8.37,1.14,2800.19,487.47,2787.94
119,41.98,22.15,2799.63,1041.47,1853.89,8.34,1.02,2826.59,489.13,2782.54
120,41.85,22.1,2792.16,1037.64,1850.25,8.33,0.98,2771.2,486.62,2769.76
121,41.79,22.1,2803.15,1035.38,1852.1,8.31,1.04,2768.75,486.88,2763.63
122,41.7,22.11,2798.06,1032.97,1851.22,8.3,0.98,2760.33,486.5,2754.04
123,41.59,22.09,2778.7,1032.76,1850.66,8.33,1.18,2790.36,485.75,2749.79
124,41.52,22.09,2770.75,1032.19,1851.03,8.31,0.78,2807.26,487.01,2743.97
125,41.43,22.09,2790.14,1030.27,1851.19,8.29,1.06,2773.44,485.41,2734.74
126,41.36,22.08,2805.1,1028.98,1853.77,8.29,0.95,2784.83,485.55,2728.6
127,41.26,22.07,2788.51,1027.8,1852.06,8.33,0.75,2790.45,484.34,2717.94
128,41.25,22.09,2770.61,1027.01,1854.65,8.31,1.1,2774.87,485.57,2718.55
129,41.21,22.08,2798.31,1027.49,1858.74,8.34,0.86,2810.2,486.74,2717.31
130,41.13,22.07,2830.83,1024.39,1856.95,8.37,1.1,2816.74,485.5,2703.84
131,41.08,22.08,2761.85,1024.76,1857.62,8.33,0.78,2802.82,486.67,2697.85
132,40.97,22.08,2796.49,1023.85,1860.56,8.36,0.54,2804.54,486.29,2696.08
133,40.99,22.07,2791.87,1023.62,1859.87,8.36,1.02,2805.95,487.53,2688.44
134,40.91,22.06,2794.85,1020.32,1859.36,8.38,1.11,2813.39,486.13,2681.34
135,40.78,22.05,2784.17,1020.75,1858.08,8.34,0.92,2817.18,486.22,2675.95
136,40.73,22.05,2792.01,1021.24,1860.03,8.33,0.98,2816.46,486.3,2668.9
137,40.66,22.06,2803.73,1019.85,1861.94,8.39,0.88,2835.44,486.71,2668.6
138,40.65,22.07,2808.22,1019.2,1862.86,8.35,1.12,2805.7,486.47,2662.45
139,40.59,22.05,2788.5,1017.02,1861.79,8.36,0.81,2816.84,486.11,2654.47
140,40.56,22.04,2842.38,1017.51,1861.91,8.38,1.55,2804.78,486.49,2649.08
141,40.5,22.04,2824.22,1016.58,1863.2,8.35,0.0,2817.2,486.29,2646.02
142,40.54,22.06,2859.24,1019.0,1868.41,8.43,0.94,2848.45,488.39,2642.66
143,40.53,22.07,2917.98,1020.41,1873.1,8.41,1.2,2884.65,488.5,2643.5
144,40.49,22.06,2915.72,1019.96,1873.36,8.4,0.91,2905.5,488.81,2636.15
145,40.43,22.07,2932.98,1017.46,1874.49,8.42,0.0,2917.24,490.39,2631.65
146,40.41,22.09,2947.88,1019.86,1877.65,8.4,1.23,2977.24,492.78,2631.75
147,40.53,22.12,2981.58,1028.24,1886.7,8.55,3.11,3054.92,500.2,2638.36
148,40.63,22.24,3073.39,1035.53,1897.49,8.43,2.59,3098.02,505.34,2644.57
149,40.58,22.23,3082.49,1034.52,1896.32,8.49,2.26,3130.49,506.65,2639.65
150,40.45,22.24,3089.35,1032.91,1897.8,8.5,1.61,3132.43,503.43,2633.32
151,40.12,22.07,2934.92,1018.54,1880.07,8.43,1.74,2982.18,491.53,2613.06
152,40.07,22.05,2928.21,1018.98,1878.56,8.43,1.76,2945.84,491.2,2605.11
153,40.05,22.07,2946.64,1018.5,1880.56,8.4,1.31,2968.35,493.04,2606.65
154,40.14,22.1,3011.33,1025.62,1886.83,8.43,1.51,3069.44,501.67,2617.27
155,40.55,22.44,3307.65,1046.44,1920.68,8.53,1.53,3267.68,515.73,2642.87
156,40.72,22.64,3479.89,1058.87,1941.5,8.53,1.55,3392.62,523.74,2651.34
157,40.26,22.29,3218.2,1035.16,1905.6,8.5,1.28,3194.84,511.39,2614.89
158,40.27,22.29,3236.73,1035.73,1911.74,8.53,1.26,3213.67,510.46,2618.31
159,40.36,22.39,3319.72,1041.66,1922.59,8.52,1.54,3319.35,514.53,2622.85
160,40.56,22.56,3428.13,1054.09,1939.99,8.55,1.14,3395.72,523.25,2633.84
161,40.42,22.49,3403.9,1046.61,1932.94,8.55,1.74,3353.7,519.65,2622.95
162,40.35,22.48,3401.76,1047.37,1932.53,8.55,1.61,3372.84,519.24,2620.14
163,40.81,22.77,3657.45,1072.93,1969.34,8.65,1.83,3587.11,534.28,2649.04
164,40.53,22.62,3527.84,1055.64,1949.06,8.57,1.65,3475.15,525.67,2627.25
165,40.56,22.65,3555.08,1059.18,1952.77,8.56,1.36,3483.81,527.5,2628.22
166,40.26,22.48,3455.68,1046.69,1936.02,8.52,1.33,3388.83,521.09,2608.47
167,39.88,22.21,3242.32,1030.01,1910.23,8.51,1.41,3217.13,511.79,2587.75
168,39.87,22.21,3255.52,1029.95,1905.57,8.49,1.32,3249.93,511.97,2586.47
169,39.64,22.09,3109.92,1022.89,1891.03,8.49,1.12,3138.29,506.61,2574.43
170,39.61,22.1,3113.24,1020.86,1890.28,8.49,1.2,3142.74,506.95,2573.86
171,39.01,21.83,2952.96,990.14,1850.94,8.42,1.27,2953.38,487.28,2508.42
172,38.89,21.74,2933.61,983.3,1843.68,8.4,1.44,2862.09,483.68,2496.6
173,38.88,21.77,2925.28,986.79,1847.6,8.42,1.12,2868.37,485.46,2504.89
174,39.08,21.96,2967.61,1002.64,1871.24,8.45,1.25,2994.06,490.31,2533.39
175,39.13,21.98,2952.88,1007.57,1873.69,8.49,1.1,3010.17,494.93,2540.39
176,39.14,22.02,2964.46,1011.37,1879.05,8.45,0.96,3023.56,496.35,2541.12
177,39.1,22.02,2974.05,1008.95,1878.38,8.47,1.18,3017.35,496.64,2535.68
178,39.09,22.02,2978.21,1010.43,1879.58,8.44,1.02,3045.15,498.67,2534.73
179,39.01,22.0,2953.48,1007.78,1877.7,8.42,1.04,3019.53,496.72,2531.24
180,38.96,21.97,2953.38,1002.59,1875.05,8.41,1.02,3011.05,494.87,2525.62
181,38.96,21.95,2952.32,1003.1,1875.8,8.4,1.39,3013.17,493.63,2521.67
182,38.91,21.92,2974.04,998.99,1874.22,8.43,1.02,2995.56,493.23,2516.04
183,38.92,21.96,2967.43,1001.84,1876.49,8.42,1.28,3030.36,496.41,2517.48
184,38.97,22.03,3015.11,1006.57,1883.12,8.45,1.09,3063.19,499.93,2522.47
185,39.11,22.08,3135.3,1014.03,1893.4,8.46,1.12,3166.4,507.26,2528.17
186,39.5,22.37,3440.16,1033.57,1930.47,8.55,1.16,3400.37,521.8,2553.58
187,39.48,22.36,3452.04,1033.62,1931.01,8.55,1.24,3390.97,521.4,2547.05
188,39.43,22.36,3467.2,1033.46,1931.16,8.57,1.06,3391.88,520.9,2544.65
189,39.18,22.17,3317.73,1021.11,1909.2,8.52,0.71,3264.34,513.04,2527.44
190,39.1,22.13,3285.32,1018.14,1903.63,8.5,1.09,3257.46,511.56,2519.8
191,38.67,21.91,2988.46,991.99,1876.0,8.42,0.89,3043.47,494.61,2489.34
192,39.04,22.15,3233.08,1013.44,1904.06,8.49,0.99,3240.6,508.94,2514.27
193,39.02,22.11,3315.15,1016.34,1902.27,8.47,0.87,3258.21,511.84,2513.5
194,38.83,22.05,3125.85,1004.75,1887.21,8.45,1.32,3112.24,504.2,2496.38
195,38.74,21.98,3128.36,1002.85,1881.62,8.43,1.08,3084.65,500.52,2488.21
196,38.31,21.71,2894.6,980.46,1852.9,8.34,1.13,2835.52,485.35,2457.98
197,38.27,21.68,2839.1,978.43,1846.44,8.33,1.08,2821.92,482.98,2456.01
198,38.25,21.67,2858.93,978.44,1847.46,8.28,0.95,2822.99,484.4,2452.09
199,38.24,21.69,2851.56,978.39,1849.42,8.29,1.09,2826.41,484.17,2451.4
200,38.21,21.68,2878.17,976.82,1849.19,8.32,0.93,2830.25,484.75,2448.97
201,38.14,21.66,2849.97,975.33,1847.26,8.33,1.1,2835.22,484.73,2445.82
202,38.13,21.66,2861.63,977.46,1849.05,8.33,1.18,2823.47,485.14,2445.4
203,38.2,21.73,2938.2,979.33,1855.8,8.35,0.0,2864.77,486.25,2450.22
204,38.23,21.77,2948.4,981.26,1860.73,8.36,1.01,2892.69,487.27,2452.19
205,38.46,21.98,3074.59,995.06,1883.02,8.44,1.26,3091.53,501.45,2470.57
206,38.84,22.18,3331.63,1015.66,1913.14,8.5,1.13,3303.19,514.77,2493.12
207,38.48,21.96,3107.65,995.75,1885.65,8.43,1.17,3114.12,499.61,2463.23
208,38.5,21.96,3154.69,998.7,1887.78,8.42,1.18,3130.47,502.73,2463.51
209,38.43,21.97,3094.49,994.0,1884.43,8.45,1.17,3117.91,499.43,2459.98
210,38.38,21.92,3100.89,990.32,1882.05,8.42,0.99,3066.09,499.09,2451.73
211,38.24,21.85,3016.73,984.51,1870.86,8.4,1.13,3018.06,494.29,2444.2
212,38.25,21.84,3012.35,984.65,1873.53,8.38,1.15,3049.1,492.98,2439.5
213,38.3,21.92,3111.84,990.51,1882.43,8.43,1.22,3086.21,499.24,2448.18
214,38.21,21.88,3028.67,984.71,1875.92,8.41,1.22,3079.4,495.28,2437.84
215,38.89,22.37,3496.16,1023.19,1930.38,8.52,1.2,3425.85,522.6,2485.22
216,39.0,22.37,3555.44,1027.57,1939.46,8.58,1.12,3491.1,525.03,2488.33
217,38.89,22.33,3534.43,1021.15,1934.99,8.56,1.17,3461.66,521.92,2478.15
218,38.37,22.03,3196.94,992.16,1889.17,8.46,1.07,3195.34,506.46,2444.51
219,38.54,22.09,3353.61,1008.01,1911.47,8.48,1.15,3319.45,513.18,2459.56
220,38.65,22.15,3381.77,1014.21,1921.54,8.49,1.3,3381.61,517.66,2460.92
221,39.23,22.64,3782.49,1043.51,1970.5,8.64,1.18,3712.59,538.02,2501.98
222,39.13,22.57,3737.05,1036.11,1963.98,8.64,1.12,3623.78,535.6,2490.85
223,39.06,22.5,3685.08,1032.88,1956.09,8.57,1.04,3625.97,533.06,2486.31
224,38.44,22.06,3357.77,998.32,1904.79,8.49,1.06,3278.01,510.54,2440.15
225,37.86,21.73,2965.02,973.43,1863.76,8.34,1.04,2997.98,487.95,2405.7
226,37.74,21.64,2941.63,966.94,1853.65,8.33,0.95,2896.44,485.33,2398.46
227,37.67,21.6,2898.71,963.87,1847.69,8.31,1.06,2843.82,483.31,2396.58
228,37.67,21.61,2878.4,963.78,1846.96,8.28,0.72,2853.73,484.31,2395.11
229,37.55,21.56,2846.79,959.83,1843.3,8.26,0.88,2825.7,482.99,2392.59
230,37.57,21.59,2879.03,961.59,1843.92,8.32,0.0,2828.82,484.24,2394.47
231,37.58,21.6,2885.65,964.14,1846.71,8.31,0.92,2853.73,484.5,2394.6
232,37.61,21.63,2928.3,966.03,1850.77,8.33,1.03,2850.16,485.94,2394.74
233,37.47,21.56,2856.76,957.95,1844.09,8.3,0.0,2857.11,482.57,2385.39
234,37.41,21.55,2812.74,950.41,1838.79,8.31,0.76,2854.35,479.63,2377.6
235,37.42,21.56,2802.22,952.48,1841.86,8.3,2.68,2792.16,480.53,2377.79
236,37.43,21.56,2813.05,956.14,1843.31,8.32,2.52,2794.99,482.52,2380.66
237,37.42,21.57,2840.81,954.98,1843.98,8.32,2.09,2804.29,482.88,2376.88
238,37.41,21.58,2829.17,955.04,1847.0,8.31,1.81,2804.08,482.28,2376.68
239,37.43,21.57,2876.36,954.91,1846.28,8.3,1.69,2813.72,483.6,2373.98
240,37.46,21.6,2920.64,958.74,1851.56,8.31,1.69,2838.55,485.45,2375.46
241,37.5,21.66,2937.55,964.7,1857.9,8.37,1.58,2897.3,485.7,2378.88
242,37.57,21.72,2944.1,968.91,1863.89,8.37,1.37,2966.28,489.14,2380.75
243,38.07,22.04,3260.57,992.48,1901.16,8.48,1.59,3245.56,510.04,2413.71
244,37.87,21.93,3120.77,983.7,1887.01,8.46,1.46,3130.83,503.63,2396.58
245,37.89,21.93,3205.03,982.69,1888.8,8.44,1.41,3165.72,501.64,2393.67
246,37.37,21.59,2877.02,951.65,1849.05,8.34,1.39,2866.94,481.83,2358.86
247,37.28,21.53,2878.81,947.59,1841.85,8.32,1.48,2839.79,479.21,2352.43
248,37.51,21.71,2950.55,963.95,1863.7,8.35,1.25,2977.92,488.48,2367.89
249,37.72,21.86,3083.74,974.12,1876.44,8.43,1.42,3073.94,498.96,2379.59
250,37.6,21.78,3030.71,967.94,1869.66,8.4,1.22,3028.75,494.1,2372.03
251,38.23,22.19,3444.99,1002.94,1922.23,8.54,1.43,3372.71,519.78,2417.38
252,37.98,22.04,3280.76,990.18,1904.16,8.5,1.38,3249.78,509.36,2394.61
253,38.27,22.17,3446.5,1002.53,1924.53,8.54,1.48,3409.33,520.06,2411.94
254,37.62,21.81,3083.68,968.87,1878.77,8.43,1.65,3071.62,495.74,2363.8
255,38.24,22.16,3506.85,1002.34,1924.02,8.54,1.54,3400.36,519.5,2407.86
256,37.45,21.68,2978.59,955.95,1864.51,8.4,1.28,2985.28,488.59,2350.23
257,37.42,21.69,2975.08,959.24,1865.88,8.37,1.21,3009.38,488.76,2351.17
258,37.59,21.83,3081.12,972.07,1878.28,8.42,1.58,3086.06,496.94,2365.41
259,37.72,21.89,3181.61,974.52,1885.22,8.43,1.65,3134.25,502.61,2369.98
260,37.26,21.57,2925.42,944.76,1850.54,8.33,1.45,2865.06,484.3,2339.15
261,37.17,21.55,2905.02,943.02,1846.07,8.29,1.52,2819.34,482.84,2332.4
262,37.06,21.53,2861.1,938.67,1841.79,8.3,1.54,2808.56,479.07,2328.51
263,36.89,21.32,2812.9,922.67,1814.1,8.28,1.5,2812.04,468.52,2288.5
264,36.87,21.33,2808.28,922.84,1813.53,8.26,1.26,2803.99,469.35,2289.49
265,36.83,21.29,2797.41,921.43,1810.79,8.25,1.39,2801.63,468.44,2284.23
266,36.51,21.06,2711.84,906.32,1794.04,8.23,1.47,2675.93,462.52,2266.38
267,36.86,21.35,2811.05,923.7,1813.25,8.25,1.56,2801.16,470.24,2286.26
268,36.81,21.32,2806.19,921.81,1811.13,8.27,1.36,2781.0,469.04,2282.2
269,36.74,21.27,2779.98,918.32,1808.98,8.26,1.24,2760.14,467.71,2278.99
270,36.81,21.31,2821.2,920.45,1812.26,8.27,1.39,2788.52,468.5,2279.19
271,36.79,21.3,2803.31,918.92,1812.0,8.24,1.53,2809.51,468.1,2273.17
272,36.76,21.29,2794.69,918.91,1809.91,8.23,1.32,2803.3,467.82,2273.58
273,36.77,21.32,2821.83,920.11,1811.41,8.25,1.36,2789.6,467.65,2274.41
274,36.74,21.3,2801.48,918.14,1810.27,8.27,1.39,2787.77,468.12,2269.78
275,36.31,21.01,2679.94,898.24,1786.47,8.24,1.16,2660.91,459.58,2245.93
276,35.88,20.8,2496.52,879.56,1759.04,8.11,1.39,2511.38,448.6,2215.41
277,35.88,20.82,2501.15,881.99,1760.2,8.12,1.08,2486.91,448.67,2216.66
