,ALCOHOL_s1[PPM],MONOXIDO DE CARBONO_S1[PPM],DIHIDROGENO_s1[PPM],ACETONA_s1[PPM],METANO_s1[PPM],ALCOHOL_s2[PPM],MONOXIDO DE CARBONO_S2[PPM],DIHIDROGENO_s2[PPM],ACETONA_s2[PPM],METANO_s2[PPM]
0,18.21,18.5,2666.0,530.19,1724.27,14.22,21.73,2493.83,308.76,770.91
1,18.44,18.44,2801.61,536.43,1724.03,8.1,1.68,2543.44,308.37,771.1
2,18.56,18.48,2807.41,538.61,1724.25,8.02,1.13,2568.1,310.43,774.13
3,18.96,18.56,2801.08,550.67,1724.94,8.0,1.02,2633.49,316.66,793.92
4,19.67,18.79,2816.34,575.59,1728.05,8.05,1.03,2716.18,327.18,839.83
5,20.68,19.01,2921.05,618.37,1737.03,8.02,0.9,2868.03,344.42,904.0
6,21.95,19.27,2960.97,669.09,1748.49,8.05,1.06,3084.31,362.68,984.08
7,23.15,19.57,2996.21,723.76,1752.78,8.09,0.0,3162.38,378.79,1069.39
8,24.58,19.88,2991.37,773.95,1752.92,8.06,1.26,3216.05,398.48,1163.15
9,26.15,20.15,3010.65,833.72,1762.01,8.09,1.18,3311.62,418.55,1269.81
10,27.69,20.44,3012.85,891.98,1760.98,8.08,1.26,3330.06,438.65,1378.15
11,29.21,20.72,2956.24,946.49,1760.76,8.11,1.1,3337.81,455.98,1489.53
12,30.91,20.95,2953.75,1006.6,1762.7,8.1,1.37,3372.93,470.28,1609.15
13,32.43,21.25,2923.16,1059.5,1764.87,8.09,1.26,3374.04,489.87,1728.88
14,34.02,21.55,2927.96,1113.3,1767.28,8.13,1.16,3387.36,508.84,1852.46
15,35.58,21.86,2908.12,1167.02,1777.21,8.12,1.05,3409.97,525.17,1974.92
16,37.2,22.11,2944.49,1227.31,1788.14,8.13,1.35,3468.17,544.09,2106.37
17,38.62,22.48,2938.59,1280.91,1798.5,8.17,0.0,3556.09,562.7,2237.48
18,40.11,22.82,2974.86,1338.32,1812.0,8.21,1.1,3620.86,584.38,2368.83
19,41.33,23.06,2960.21,1380.87,1812.78,8.18,1.01,3596.71,600.32,2488.84
20,42.66,23.33,2950.04,1429.34,1828.26,8.26,2.47,3606.42,613.51,2610.51
21,43.81,23.64,2960.83,1472.15,1840.33,8.28,1.69,3632.85,628.7,2729.68
22,44.86,23.85,2986.81,1512.22,1849.85,8.3,1.51,3692.59,641.46,2842.23
23,45.84,24.08,2989.07,1549.35,1861.42,8.32,1.58,3695.67,651.81,2952.37
24,46.67,24.18,2981.84,1574.45,1861.42,8.33,1.49,3665.76,662.68,3047.17
25,47.61,24.43,2966.79,1608.59,1873.61,8.36,1.38,3676.91,676.38,3153.44
26,48.36,24.55,2957.61,1634.89,1880.36,8.41,1.42,3714.74,688.15,3249.64
27,49.12,24.75,2976.8,1664.27,1886.28,8.41,1.34,3721.74,698.95,3344.17
28,49.74,24.89,2982.58,1686.68,1890.84,8.44,1.54,3681.76,705.43,3431.89
29,50.32,25.02,2960.54,1705.24,1895.17,8.41,1.21,3653.77,709.73,3507.96
30,50.75,25.07,2920.1,1717.62,1897.48,8.42,1.42,3601.42,713.17,3577.54
31,51.21,25.17,2935.49,1733.55,1904.91,8.44,1.49,3607.48,720.33,3651.01
32,51.6,25.26,2928.75,1745.26,1910.56,8.45,1.28,3596.32,721.53,3713.72
33,51.93,25.33,2886.14,1754.43,1916.94,8.48,1.38,3594.72,724.57,3776.81
34,52.29,25.43,2921.34,1771.95,1927.35,8.49,1.31,3620.31,728.78,3843.9
35,52.67,25.56,2960.7,1785.83,1940.03,8.51,1.48,3617.11,736.73,3913.06
36,52.82,25.6,2911.17,1788.92,1939.83,8.53,1.4,3593.22,737.04,3956.85
37,52.95,25.62,2895.75,1792.5,1943.06,8.54,1.52,3554.42,737.79,3996.24
38,53.18,25.64,2870.13,1796.73,1948.09,8.56,1.31,3529.03,739.45,4043.36
39,53.4,25.7,2926.19,1808.3,1956.77,8.55,1.35,3558.75,743.92,4093.39
40,53.52,25.73,2909.43,1807.61,1959.23,8.58,1.5,3552.5,746.67,4122.77
41,53.65,25.81,2938.03,1812.79,1967.69,8.63,1.49,3553.16,747.33,4156.87
42,53.79,25.88,2968.48,1817.78,1980.54,8.66,1.39,3590.77,752.24,4200.27
43,53.85,25.9,2938.52,1817.66,1988.26,8.66,1.42,3573.53,752.25,4226.49
44,53.87,25.89,2946.06,1816.24,1988.92,8.63,1.21,3575.87,753.76,4247.2
45,53.85,25.88,2948.65,1811.89,1992.55,8.66,1.17,3541.27,750.27,4269.28
46,53.73,25.86,2931.45,1803.99,1990.39,8.67,1.43,3479.91,748.93,4270.66
47,53.64,25.84,2847.45,1794.58,1987.74,8.66,1.35,3419.42,744.77,4282.65
48,53.53,25.74,2807.91,1783.37,1986.17,8.66,1.04,3380.59,740.64,4294.68
49,53.43,25.74,2814.62,1777.45,1986.83,8.66,1.48,3367.9,738.03,4302.92
50,53.22,25.66,2783.92,1766.76,1984.33,8.66,1.38,3347.31,733.0,4296.08
51,53.24,25.74,2806.67,1771.67,1996.73,8.69,1.25,3357.39,737.77,4319.02
52,53.12,25.66,2785.43,1759.74,1994.27,8.69,1.32,3352.79,733.25,4316.4
53,52.99,25.69,2810.97,1756.31,1999.56,8.68,1.26,3330.75,732.89,4321.79
54,52.76,25.59,2795.66,1739.42,1991.52,8.65,1.22,3258.11,727.27,4309.42
55,52.65,25.59,2784.48,1732.4,1993.34,8.68,1.3,3242.75,724.43,4307.7
56,52.55,25.62,2793.58,1730.51,1999.24,8.68,1.41,3279.05,724.9,4309.19
57,52.44,25.61,2805.94,1726.34,2003.96,8.71,1.37,3277.76,724.66,4307.78
58,52.3,25.62,2830.88,1716.57,2006.37,8.72,1.42,3281.17,723.1,4298.38
59,52.02,25.46,2768.2,1699.93,1999.16,8.71,1.22,3187.66,720.03,4282.62
60,51.87,25.47,2790.01,1694.22,2003.06,8.73,1.33,3189.36,718.69,4279.53
61,51.79,25.49,2806.93,1691.3,2009.33,8.75,1.45,3234.85,720.79,4277.87
62,51.55,25.42,2803.95,1675.65,2005.1,8.71,1.09,3193.52,715.42,4260.25
63,51.25,25.33,2773.55,1659.61,1997.45,8.66,1.05,3115.75,707.37,4238.29
64,51.13,25.35,2801.0,1658.97,2007.44,8.71,1.06,3155.89,710.71,4234.65
65,51.16,25.45,2897.7,1668.59,2021.69,8.74,1.2,3267.57,718.2,4240.35
66,51.01,25.43,2930.89,1661.29,2025.87,8.7,1.15,3302.55,716.92,4231.44
67,50.81,25.39,2919.22,1645.74,2022.49,8.75,1.46,3230.48,712.76,4214.28
68,50.54,25.32,2870.25,1634.35,2018.2,8.74,1.57,3214.86,707.93,4191.22
69,50.34,25.25,2855.48,1624.13,2016.9,8.76,1.45,3189.6,705.09,4176.13
70,50.07,25.19,2868.73,1615.46,2017.52,8.71,1.45,3187.79,702.62,4159.88
71,49.92,25.16,2866.92,1609.02,2019.57,8.77,1.47,3189.2,701.81,4148.3
72,49.76,25.14,2892.01,1604.08,2020.94,8.77,1.52,3200.78,701.8,4132.22
73,49.63,25.16,2923.13,1603.1,2031.0,8.76,1.76,3225.76,702.66,4125.69
74,49.44,25.12,2932.32,1597.22,2026.96,8.73,1.56,3218.33,699.83,4111.39
75,49.22,25.09,2936.52,1583.89,2023.29,8.75,1.54,3211.98,697.7,4088.99
76,48.91,24.94,2861.46,1570.21,2016.51,8.75,1.38,3171.64,689.75,4060.49
77,48.79,24.95,2940.12,1569.76,2020.73,8.75,1.49,3208.12,693.21,4051.85
78,48.35,24.7,2780.05,1543.79,2002.16,8.69,1.5,3043.7,674.76,4015.48
79,48.0,24.57,2785.76,1528.31,1990.14,8.69,1.23,2953.42,666.22,3982.35
80,47.8,24.55,2758.77,1521.3,1991.01,8.67,1.19,2955.65,664.92,3971.08
81,47.76,24.59,2793.3,1524.86,1998.52,8.69,1.14,3019.98,669.62,3970.86
82,47.6,24.55,2791.55,1518.55,1999.46,8.71,1.38,3024.73,668.88,3950.74
83,47.3,24.42,2776.13,1498.61,1983.18,8.66,1.19,2884.44,653.52,3913.2
84,47.24,24.47,2779.85,1500.13,1991.38,8.67,1.28,2961.82,657.99,3911.73
85,47.01,24.45,2797.7,1493.28,1993.75,8.69,1.43,2974.34,655.47,3891.57
86,46.8,24.38,2778.97,1483.46,1991.09,8.66,1.18,2974.82,651.4,3869.49
87,46.68,24.4,2790.33,1482.69,1995.83,8.66,1.21,3003.6,653.61,3863.46
88,46.54,24.4,2802.72,1481.38,1999.33,8.69,1.16,3024.33,655.26,3851.32
89,46.47,24.43,2825.05,1481.09,2006.51,8.72,1.21,3054.09,658.86,3842.92
90,46.69,24.61,3009.0,1501.94,2030.11,8.76,1.25,3243.44,675.64,3861.15
91,46.47,24.53,2954.15,1489.66,2023.39,8.73,1.46,3196.68,671.23,3837.68
92,46.18,24.4,2907.08,1473.13,2013.7,8.74,1.43,3134.5,661.45,3805.31
93,45.65,24.16,2779.7,1447.52,1990.54,8.66,1.53,2955.47,644.23,3763.87
94,45.82,24.34,2914.24,1465.61,2013.91,8.73,1.24,3136.14,658.93,3778.98
95,45.66,24.26,2923.06,1457.13,2011.53,8.73,1.25,3100.1,654.09,3762.11
96,45.57,24.26,2939.54,1456.62,2016.25,8.72,1.3,3145.84,657.67,3752.89
97,45.58,24.39,3004.55,1461.26,2026.51,8.77,1.3,3231.83,665.47,3754.75
98,45.51,24.36,3011.7,1460.82,2027.48,8.76,1.34,3245.95,666.01,3744.48
99,45.27,24.25,2987.39,1449.94,2020.41,8.74,1.04,3198.4,660.33,3723.14
100,45.07,24.23,2978.99,1446.95,2021.13,8.69,0.9,3176.74,656.51,3707.59
101,45.03,24.22,2995.02,1445.35,2022.55,8.73,1.18,3224.68,658.1,3699.43
102,45.01,24.19,3011.9,1442.19,2022.94,8.77,1.06,3224.98,656.54,3685.7
103,44.94,24.24,3052.86,1442.56,2028.25,8.75,1.0,3280.21,661.46,3680.36
104,44.75,24.19,3033.53,1431.1,2022.96,8.71,1.18,3266.7,654.64,3663.59
105,44.61,24.17,3015.91,1427.84,2018.76,8.73,1.26,3219.54,652.76,3649.33
106,44.58,24.18,3042.49,1426.04,2021.33,8.76,1.38,3236.26,655.07,3646.54
107,44.5,24.19,3114.61,1429.95,2025.64,8.72,1.26,3319.65,659.23,3639.56
108,44.44,24.16,3088.4,1423.04,2022.33,8.69,1.35,3331.54,656.16,3624.09
109,44.33,24.14,3088.3,1417.98,2021.03,8.72,1.29,3299.9,654.53,3612.84
110,44.27,24.16,3150.83,1419.79,2028.86,8.73,1.17,3311.87,657.69,3609.03
111,44.03,24.11,3099.99,1413.74,2022.25,8.75,1.15,3277.88,653.36,3590.1
112,43.82,24.04,3045.26,1404.15,2017.42,8.75,1.32,3224.68,647.33,3572.82
113,43.7,24.01,3033.13,1401.78,2015.72,8.71,0.98,3230.37,647.73,3562.42
114,43.58,23.99,3043.56,1398.38,2015.21,8.69,1.27,3229.03,647.46,3553.0
115,43.49,23.97,3027.18,1396.96,2015.33,8.74,1.37,3201.75,646.58,3548.7
116,43.45,23.98,3077.88,1395.87,2015.44,8.72,1.2,3234.49,648.48,3540.7
117,43.38,23.98,3090.47,1394.83,2017.75,8.7,1.02,3261.41,648.23,3536.34
118,43.24,23.92,3029.04,1389.29,2012.98,8.7,0.88,3211.43,645.72,3515.9
119,43.23,23.95,3084.42,1390.18,2018.38,8.75,0.0,3264.34,646.42,3512.46
120,43.12,23.9,3068.66,1385.5,2014.72,8.73,1.2,3259.18,645.79,3500.72
121,43.07,23.91,3101.0,1384.62,2016.34,8.71,0.0,3272.26,645.76,3496.75
122,42.96,23.87,3071.99,1380.53,2015.65,8.73,1.31,3210.71,645.68,3482.54
123,42.67,23.77,3018.48,1368.17,2005.23,8.72,1.27,3181.69,640.85,3463.68
124,42.6,23.72,3000.12,1364.39,2002.72,8.68,1.5,3164.38,641.46,3453.06
125,42.51,23.7,3004.25,1360.68,1999.9,8.69,1.47,3147.7,639.79,3444.02
126,42.53,23.73,3060.6,1363.45,2004.86,8.7,1.36,3224.77,642.18,3438.94
127,42.51,23.77,3114.98,1367.59,2015.7,8.7,1.21,3278.51,644.55,3443.45
128,42.51,23.84,3157.84,1369.24,2018.09,8.76,1.09,3278.19,645.68,3437.91
129,42.16,23.61,3018.28,1349.3,1997.41,8.71,0.0,3152.91,637.48,3409.46
130,41.81,23.39,2917.76,1333.37,1977.7,8.67,0.0,3037.02,627.63,3383.33
131,41.75,23.36,2902.59,1330.65,1974.51,8.66,1.24,3026.92,626.77,3377.8
132,41.7,23.35,2918.82,1330.71,1977.92,8.67,1.26,3027.1,627.15,3369.62
133,41.54,23.32,2900.39,1323.92,1970.45,8.65,1.17,2986.3,624.92,3356.36
134,41.32,23.24,2816.87,1310.23,1958.02,8.57,1.25,2886.78,617.25,3335.13
135,41.2,23.18,2795.72,1304.48,1952.68,8.57,1.0,2826.44,615.34,3327.82
136,41.11,23.16,2770.62,1301.62,1949.8,8.55,1.2,2808.6,613.62,3312.41
137,41.13,23.23,2815.39,1306.19,1959.62,8.59,1.15,2906.02,619.13,3318.41
138,41.34,23.39,2943.62,1322.63,1982.08,8.69,1.23,3063.51,629.57,3335.56
139,41.35,23.4,2952.82,1325.68,1986.71,8.69,1.39,3109.46,632.68,3331.96
140,41.38,23.47,3014.42,1329.38,1994.13,8.69,1.24,3167.9,635.87,3329.76
141,41.23,23.36,2947.05,1319.6,1986.99,8.71,1.1,3095.42,631.23,3314.47
142,40.99,23.26,2918.48,1304.66,1968.95,8.62,1.07,3040.19,623.27,3291.3
143,40.98,23.26,2914.69,1303.39,1970.46,8.66,1.21,3021.85,622.87,3286.15
144,40.83,23.21,2878.5,1296.91,1963.54,8.63,1.28,2957.9,620.0,3270.42
145,40.8,23.22,2907.97,1299.83,1968.9,8.62,1.06,3009.77,621.24,3266.93
146,40.69,23.18,2906.8,1292.41,1963.7,8.62,1.09,2992.64,620.11,3257.89
147,40.66,23.19,2921.82,1290.8,1964.66,8.61,1.19,3000.46,620.0,3250.16
148,40.69,23.25,2958.1,1297.18,1971.55,8.62,1.02,3055.17,624.28,3257.16
149,40.72,23.26,2972.05,1300.37,1979.76,8.66,1.18,3075.46,626.5,3253.43
150,40.74,23.29,2979.21,1303.15,1983.15,8.65,1.09,3108.05,628.43,3249.66
151,40.69,23.28,2989.82,1301.35,1984.82,8.66,0.0,3127.7,629.21,3244.05
152,40.66,23.3,3008.89,1301.36,1984.69,8.69,1.17,3135.53,629.6,3240.49
153,40.57,23.24,2978.96,1293.29,1976.42,8.61,1.11,3108.07,626.47,3225.17
154,40.64,23.32,3078.78,1302.25,1991.57,8.68,1.06,3195.28,634.3,3233.7
155,40.54,23.27,3026.44,1292.74,1982.05,8.66,0.0,3133.88,627.94,3219.99
156,40.57,23.3,3058.8,1296.57,1988.07,8.68,1.16,3151.35,631.17,3217.63
157,40.51,23.29,3059.78,1294.32,1986.08,8.66,0.0,3152.17,629.9,3213.85
158,40.36,23.23,3006.72,1286.13,1978.36,8.64,1.2,3105.94,627.03,3201.2
159,40.36,23.26,3021.36,1288.16,1984.58,8.69,1.3,3143.28,630.28,3200.63
160,40.33,23.25,3050.86,1288.84,1985.32,8.69,1.16,3174.73,630.7,3197.33
161,40.16,23.21,3009.39,1281.83,1979.7,8.66,1.32,3116.92,626.26,3186.94
162,39.96,23.11,2972.01,1273.46,1964.61,8.61,1.06,3042.55,619.93,3170.02
163,39.83,23.06,2966.22,1267.02,1957.49,8.6,1.16,3033.63,617.86,3155.09
164,39.74,22.97,2909.36,1263.87,1952.98,8.57,1.29,2996.0,614.18,3148.96
165,39.68,22.97,2912.1,1263.88,1952.74,8.55,1.18,3002.48,614.74,3144.0
166,39.86,23.14,2995.85,1274.6,1970.98,8.66,1.02,3115.89,623.72,3164.42
167,39.9,23.18,3008.81,1276.69,1976.28,8.65,0.0,3126.74,627.11,3159.35
168,39.9,23.17,3067.48,1278.85,1980.08,8.65,1.09,3170.07,629.32,3157.86
169,40.02,23.28,3169.0,1285.65,1991.94,8.7,1.15,3285.37,635.4,3168.4
170,40.11,23.33,3284.27,1292.01,2001.6,8.72,0.52,3336.68,639.38,3170.47
171,39.78,23.17,3072.12,1274.27,1978.23,8.65,1.22,3169.32,627.22,3142.14
172,39.52,23.0,2953.85,1262.73,1958.29,8.58,1.29,3049.73,617.99,3121.59
173,39.63,23.08,2997.99,1266.44,1968.47,8.61,1.04,3116.15,623.64,3128.8
174,39.71,23.18,3064.81,1273.37,1978.62,8.67,1.3,3168.4,629.36,3135.33
175,39.76,23.22,3146.46,1276.55,1984.66,8.66,1.33,3241.91,633.58,3136.83
176,39.73,23.19,3113.94,1275.29,1983.38,8.64,0.97,3230.9,631.84,3129.4
177,39.68,23.18,3138.72,1274.94,1984.94,8.71,1.53,3201.84,631.42,3126.65
178,39.6,23.15,3079.3,1269.21,1980.2,8.68,1.26,3187.06,629.91,3118.99
179,39.8,23.29,3279.25,1282.43,1999.74,8.76,1.27,3329.61,638.96,3135.59
180,39.57,23.17,3139.93,1270.53,1984.06,8.64,1.33,3241.78,631.33,3112.02
181,39.3,22.96,2966.56,1255.25,1957.83,8.58,0.82,3066.73,618.26,3088.9
182,39.08,22.82,2889.87,1239.44,1942.02,8.56,0.82,2981.22,611.51,3070.89
183,38.98,22.77,2858.37,1236.47,1938.48,8.53,0.72,2938.16,608.73,3067.38
184,39.09,22.86,2948.78,1249.13,1953.18,8.59,1.04,3043.36,616.34,3075.36
185,38.97,22.77,2873.5,1237.21,1940.75,8.58,1.36,2951.81,611.61,3063.65
186,38.71,22.66,2798.85,1221.44,1925.49,8.55,0.0,2815.22,604.25,3041.76
187,38.55,22.57,2806.36,1210.06,1909.36,8.5,0.95,2831.87,601.18,3028.16
188,38.55,22.59,2788.12,1210.66,1913.75,8.5,0.0,2829.42,600.14,3028.34
189,38.52,22.59,2804.49,1210.8,1914.82,8.49,1.24,2844.1,601.69,3024.14
190,38.46,22.59,2813.5,1208.14,1913.1,8.49,0.0,2846.06,601.94,3018.41
191,38.43,22.59,2800.75,1205.65,1912.86,8.5,0.96,2840.09,601.92,3012.39
192,38.37,22.57,2812.07,1203.0,1906.18,8.47,0.0,2838.28,599.99,3008.21
193,38.33,22.54,2804.36,1201.83,1906.85,8.51,0.96,2829.21,601.21,3003.98
194,38.31,22.51,2787.78,1198.28,1900.65,8.45,0.0,2806.05,597.82,2999.27
195,38.15,22.37,2702.6,1190.28,1889.14,8.44,1.1,2738.9,591.85,2980.78
196,38.19,22.38,2726.95,1192.19,1890.7,8.39,1.29,2728.99,592.59,2986.15
197,38.18,22.45,2775.49,1191.65,1895.61,8.44,0.86,2736.86,594.56,2986.73
198,38.19,22.47,2766.88,1193.83,1899.48,8.47,1.07,2762.18,597.12,2986.58
199,38.17,22.48,2781.46,1194.39,1903.05,8.47,0.94,2787.05,598.19,2983.59
200,38.2,22.5,2812.14,1195.4,1905.07,8.47,0.81,2813.59,598.74,2979.34
201,38.18,22.5,2794.95,1193.89,1905.18,8.49,0.97,2802.8,600.23,2976.06
202,38.11,22.48,2821.0,1191.07,1903.43,8.45,0.0,2821.09,598.12,2970.39
203,38.14,22.49,2829.39,1191.35,1904.35,8.42,1.07,2870.85,600.21,2966.14
204,38.05,22.47,2826.73,1189.1,1899.85,8.44,0.0,2842.68,598.16,2963.51
205,37.94,22.37,2775.85,1183.63,1895.16,8.41,0.86,2812.2,592.84,2954.5
206,37.86,22.31,2745.46,1181.47,1890.74,8.42,0.83,2736.17,589.3,2947.64
207,37.87,22.34,2767.6,1183.0,1890.92,8.38,0.0,2750.22,590.81,2946.09
208,37.82,22.29,2694.66,1174.57,1890.6,8.45,1.07,2737.49,587.68,2936.57
209,37.88,22.42,2812.94,1182.58,1896.48,8.39,0.0,2821.78,595.71,2946.01
210,37.83,22.36,2821.29,1179.96,1894.9,8.41,0.71,2813.76,592.59,2934.83
211,37.77,22.29,2722.4,1173.53,1890.35,8.41,0.0,2784.32,586.31,2925.95
212,37.64,22.21,2615.98,1162.36,1884.73,8.37,0.0,2729.77,578.07,2916.69
213,37.75,22.3,2737.61,1171.21,1889.45,8.39,0.0,2745.41,588.37,2925.68
214,37.73,22.27,2742.13,1170.76,1892.09,8.44,3.86,2722.06,589.12,2922.13
215,37.67,22.23,2698.12,1164.21,1890.13,8.49,5.11,2699.02,584.95,2916.87
216,37.66,22.24,2705.65,1165.37,1890.28,8.49,6.47,2690.54,584.89,2914.2
217,37.5,22.17,2648.78,1151.74,1877.13,8.51,10.14,2685.29,578.82,2882.75
218,37.21,22.05,2571.8,1130.25,1854.82,8.3,6.25,2621.64,566.98,2844.55
219,37.17,22.05,2567.7,1126.72,1851.26,8.33,3.53,2611.03,567.04,2839.06
220,37.12,22.06,2549.3,1125.36,1850.98,8.39,3.89,2615.25,566.91,2834.48
221,37.02,21.95,2520.11,1120.8,1843.78,8.33,2.92,2534.17,563.39,2824.25
222,36.97,21.87,2464.38,1117.09,1835.92,8.3,2.37,2483.0,559.57,2816.65
223,36.94,21.87,2470.26,1115.59,1833.92,8.28,1.88,2483.33,558.65,2810.17
224,36.94,21.87,2453.99,1115.22,1834.69,8.3,0.0,2495.71,559.16,2808.38
225,36.94,21.94,2496.41,1117.53,1838.03,8.28,1.05,2535.68,562.95,2810.91
226,37.01,22.05,2595.48,1120.77,1849.38,8.35,1.11,2639.8,566.23,2819.93
227,37.0,22.04,2580.79,1119.8,1850.32,8.36,0.0,2637.73,567.25,2815.79
228,37.03,22.05,2588.05,1121.88,1854.93,8.33,1.0,2662.98,566.87,2816.77
229,37.01,22.03,2581.85,1120.95,1853.98,8.35,1.03,2646.66,565.99,2811.38
230,37.0,22.04,2583.54,1121.06,1851.02,8.34,1.14,2650.25,567.15,2805.91
231,36.96,22.04,2558.47,1119.25,1850.21,8.32,1.62,2635.01,567.34,2802.65
232,36.96,22.03,2577.46,1119.72,1851.3,8.34,1.41,2628.96,565.88,2798.44
233,36.93,21.99,2548.68,1118.43,1843.59,8.33,0.0,2599.7,564.57,2792.89
234,36.86,21.9,2553.32,1110.47,1841.33,8.31,0.0,2571.55,562.68,2786.23
235,36.88,21.96,2558.67,1113.45,1843.41,8.29,0.0,2615.16,563.47,2785.41
236,36.92,22.01,2564.55,1116.26,1846.36,8.33,0.45,2631.99,565.75,2786.55
237,36.9,22.0,2578.53,1116.42,1846.86,8.31,1.16,2633.01,566.42,2785.34
238,36.9,21.99,2598.14,1114.59,1845.81,8.3,0.84,2649.1,566.45,2782.5
239,36.89,22.03,2578.53,1115.39,1850.78,8.31,0.76,2652.19,566.79,2785.13
240,37.06,22.09,2650.4,1130.37,1873.72,8.4,1.15,2710.57,573.18,2822.45
241,37.01,22.08,2591.21,1124.21,1870.2,8.5,1.67,2635.5,569.39,2812.82
242,36.98,22.08,2549.16,1122.73,1870.38,8.37,3.83,2598.91,568.34,2813.41
243,37.01,22.07,2565.35,1125.94,1873.45,8.44,5.6,2638.89,569.38,2818.12
244,37.05,22.08,2616.13,1128.71,1878.56,8.43,2.66,2668.41,571.53,2814.26
245,37.13,22.13,2705.31,1135.99,1883.34,8.42,3.2,2713.86,578.32,2822.54
246,37.1,22.13,2713.91,1136.05,1885.19,8.43,2.46,2692.9,576.95,2819.88
247,37.11,22.13,2721.15,1134.28,1884.73,8.45,2.15,2689.27,578.27,2817.31
248,37.04,22.1,2624.5,1127.24,1878.56,8.47,1.81,2665.43,571.72,2807.85
249,36.95,22.08,2562.31,1120.61,1870.6,8.41,1.64,2649.13,569.33,2795.76
250,36.96,22.08,2567.9,1120.62,1873.54,8.43,0.0,2649.12,569.03,2799.76
251,36.95,22.07,2605.29,1121.47,1875.33,8.4,1.3,2659.25,569.97,2794.12
252,36.97,22.08,2614.7,1122.06,1876.5,8.45,1.4,2676.83,570.63,2792.64
253,37.02,22.13,2740.87,1128.36,1883.22,8.42,1.13,2728.21,577.19,2798.92
254,37.22,22.27,2787.68,1142.17,1893.11,8.43,1.15,2802.85,594.36,2817.12
255,37.2,22.26,2779.87,1140.53,1891.6,8.46,1.41,2815.23,594.6,2810.79
256,37.25,22.32,2788.03,1143.04,1897.54,8.46,0.91,2812.35,597.35,2815.7
257,37.08,22.17,2767.12,1129.83,1887.31,8.47,1.38,2772.41,583.89,2796.39
258,36.95,22.08,2717.35,1119.88,1878.96,8.42,1.37,2696.66,572.54,2782.03
259,36.92,22.07,2694.8,1119.94,1875.58,8.43,1.42,2675.66,571.71,2777.15
260,36.93,22.08,2707.91,1120.19,1877.77,8.42,1.24,2694.67,573.79,2779.28
261,36.94,22.09,2727.16,1120.96,1878.04,8.41,1.33,2693.91,573.02,2778.99
262,36.93,22.08,2717.3,1121.37,1876.99,8.41,1.06,2699.55,574.64,2775.62
263,36.94,22.09,2748.76,1120.56,1878.69,8.47,1.46,2711.25,575.01,2777.55
264,36.93,22.09,2752.21,1119.86,1878.64,8.43,1.57,2704.44,574.83,2774.17
265,36.93,22.08,2744.07,1121.31,1878.75,8.44,1.45,2733.98,574.94,2774.48
266,36.92,22.09,2761.43,1121.34,1879.76,8.44,1.38,2720.62,576.84,2771.19
267,36.91,22.08,2750.3,1121.16,1878.39,8.4,1.25,2703.37,575.28,2768.91
268,36.86,22.08,2688.82,1120.01,1875.9,8.42,1.41,2704.93,571.88,2760.53
269,36.82,22.08,2653.81,1116.51,1873.77,8.38,1.51,2679.77,570.76,2756.75
270,36.82,22.07,2665.35,1115.85,1874.67,8.43,1.29,2689.22,570.9,2753.12
271,36.82,22.07,2725.2,1118.44,1877.83,8.46,1.22,2671.68,572.28,2755.87
272,36.84,22.09,2717.27,1117.82,1875.62,8.41,1.34,2703.7,573.12,2755.94
273,36.85,22.09,2738.55,1119.05,1877.71,8.44,1.37,2694.9,574.58,2758.29
274,36.85,22.09,2760.64,1119.87,1880.98,8.45,1.34,2715.51,576.86,2756.9
275,36.85,22.09,2765.84,1119.16,1879.81,8.41,1.31,2725.46,578.34,2756.35
276,36.84,22.09,2774.48,1119.92,1880.87,8.45,1.36,2713.6,578.37,2754.84
